frame_number,force
0,619.2184500001321
1,618.908815386925
2,618.6023493116849
3,618.3021534978764
4,618.0111990407668
5,617.7322681215162
6,617.4679030756569
7,617.2203639371292
8,616.9915949252807
9,616.7831997739974
10,616.5964254235347
11,616.4321534484087
12,616.290898574493
13,616.1728136328176
14,616.0777003150226
15,616.005025185545
16,615.953940532349
17,615.9233097248454
18,615.9117367905196
19,615.9175999419061
20,615.9390887158679
21,615.9742441603113
22,616.0210012289949
23,616.0772324211711
24,616.1407917523287
25,616.2095581945816
26,616.2814776580184
27,616.3546024613344
28,616.4271272105354
29,616.4974201352996
30,616.5640491465857
31,616.6258020593649
32,616.6817005604028
33,616.7310076717583
34,616.7732286963027
35,616.808105876754
36,616.8356071974592
37,616.8559098999866
38,616.8693793861238
39,616.876544261696
40,616.8780683457494
41,616.8747205418869
42,616.8673435406668
43,616.856822372088
44,616.8440538240785
45,616.829917680791
46,616.8152506248426
47,616.8008234761323
48,616.7873221967153
49,616.775332845275
50,616.7653305282098
51,616.7576723894808
52,616.7525947003192
53,616.7502140413593
54,616.7505324221213
55,616.7534460379917
56,616.7587572494838
57,616.7661892419688
58,616.7754026873523
59,616.7860136593123
60,616.797612090914
61,616.8097801332356
62,616.8221097760941
63,616.8342190277683
64,616.8457659206372
65,616.856459700782
66,616.8660687555698
67,616.8744250625398
68,616.8814251852592
69,616.887028117483
70,616.8912505585245
71,616.8941604167222
72,616.8958694272942
73,616.8965257075071
74,616.8963068610069
75,616.8954139571492
76,616.8940664673579
77,616.8924981070496
78,616.8909534865605
79,616.889685461946
80,616.8889530752284
81,616.889020000472
82,616.8901534654037
83,616.8926236401694
84,616.8967034004269
85,616.9026681604196
86,616.9107952006894
87,616.9213617316108
88,616.9346409933473
89,616.9508960377261
90,616.970371348282
91,616.99328294563
92,617.0198079613742
93,617.050074778971
94,617.084154717828
95,617.1220559270739
96,617.1637197791923
97,617.2090197413613
98,617.2577625095577
99,617.3096910998739
100,617.3644895884079
101,617.4217892761835
102,617.4811761762592
103,617.5421997602054
104,617.6043827790069
105,617.667231740117
106,617.7302474312112
107,617.7929348408535
108,617.8548119164396
109,617.91541675205
110,617.9743129894296
111,618.031093440763
112,618.0853821841451
113,618.1368356204699
114,618.1851431674487
115,618.2300283134274
116,618.2712505955888
117,618.3086087317989
118,618.341944726258
119,618.3711484098134
120,618.3961616766611
121,618.4169817142996
122,618.4336627900683
123,618.446316547189
124,618.45511110654
125,618.4602694379928
126,618.4620674371267
127,618.460831993789
128,618.4569391574033
129,618.4508123298546
130,618.4429202579555
131,618.433774479843
132,618.4239258354969
133,618.4139596637398
134,618.4044893100182
135,618.396147532621
136,618.3895753886234
137,618.3854083011994
138,618.3842592890082
139,618.3866997385006
140,618.3932385311285
141,618.4043006847023
142,618.4202068725551
143,618.4411552644408
144,618.4672070835165
145,618.4982770189123
146,618.5341291631196
147,618.5743786278412
148,618.618498644906
149,618.6658328037023
150,618.7156119488067
151,618.7669750463141
152,618.8189931109141
153,618.8706952254336
154,618.9210957771394
155,618.9692221135754
156,619.0141417868293
157,619.0549884972186
158,619.090985891802
159,619.1214685142857
160,619.1458993204766
161,619.1638831841718
162,619.1751757984124
163,619.1796874904309
164,619.1774817533573
165,619.1687686322854
166,619.153893401736
167,619.1333212495555
168,619.1076189100979
169,619.0774342700362
170,619.0434748647267
171,619.0064859614447
172,618.9672287110654
173,618.9264587509609
174,618.8849056795166
175,618.8432538966352
176,618.8021253013915
177,618.762064283036
178,618.7235254640505
179,618.6868647821954
180,618.6523345852406
181,618.6200832943892
182,618.5901598444669
183,618.562522625278
184,618.5370521649339
185,618.5135664481177
186,618.4918376490865
187,618.4716091850904
188,618.4526122400448
189,618.434581091637
190,618.4172666058373
191,618.400447226441
192,618.3839368799464
193,618.3675895585601
194,618.3513008369097
195,618.3350069814779
196,618.3186824782547
197,618.3023367540779
198,618.2860106697232
199,618.2697730872728
200,618.2537175788382
201,618.2379592557447
202,618.2226317312429
203,618.2078842572377
204,618.1938790181754
205,618.1807884700072
206,618.1687925811794
207,618.1580759038193
208,618.1488245120644
209,618.1412229082781
210,618.1354510107647
211,618.1316813396722
212,618.130076507376
213,618.1307870574723
214,618.1339495941282
215,618.1396850630096
216,618.1480970197664
217,618.1592697291106
218,618.1732659541397
219,618.1901243397066
220,618.209856388216
221,618.2324431676649
222,618.2578320647125
223,618.2859340520961
224,618.3166219774499
225,618.3497302352855
226,618.3850559192887
227,618.4223612921968
228,618.4613772500381
229,618.5018074585377
230,618.5433329930248
231,618.5856174942326
232,618.6283129217039
233,618.6710659253714
234,618.7135247402825
235,618.7553464038982
236,618.7962040260601
237,618.8357938236115
238,618.873841664759
239,618.9101089267833
240,618.9443975221557
241,618.976553970375
242,619.006472385986
243,619.0340962552285
244,619.0594189325758
245,619.082482902065
246,619.1033779639332
247,619.1222385761066
248,619.1392405862167
249,619.1545975435201
250,619.1685567200468
251,619.1813949390967
252,619.1934143025575
253,619.2049378947755
254,619.2163055227146
255,619.227869536815
256,619.2399907296389
257,619.2530342213128
258,619.2673651731407
259,619.2833441678197
260,619.3013221236894
261,619.3216346265536
262,619.3445955776364
263,619.3704901195819
264,619.3995669483415
265,619.4320303239908
266,619.4680322496982
267,619.5076652721505
268,619.55095618677
269,619.5978607756002
270,619.648259690106
271,619.7019556782675
272,619.7586724463575
273,619.8180555038203
274,619.8796753574549
275,619.9430333464428
276,620.0075702109996
277,620.0726772511013
278,620.137709770615
279,620.2020023981129
280,620.2648857438256
281,620.3257037147087
282,620.3838307643545
283,620.4386884132253
284,620.4897604478737
285,620.5366062271503
286,620.5788715169062
287,620.6162963184127
288,620.6487192763944
289,620.6760784118995
290,620.6984080876196
291,620.7158322727403
292,620.7285543316252
293,620.7368437369826
294,620.7410203476475
295,620.7414371732693
296,620.7384627463714
297,620.7324642306938
298,620.7237922426484
299,620.7127681407519
300,620.6996742900052
301,620.6847475482379
302,620.6681759904629
303,620.6500987456519
304,620.6306087842645
305,620.6097584958162
306,620.5875678339278
307,620.5640346401024
308,620.5391465164577
309,620.5128933663339
310,620.4852795532265
311,620.456334642879
312,620.4261219251679
313,620.3947443060592
314,620.3623476151428
315,620.3291217583384
316,620.2953003056671
317,620.2611589787796
318,620.2270132130526
319,620.1932147207034
320,620.1601468783471
321,620.1282187697877
322,620.0978577767655
323,620.0695007171928
324,620.0435836879591
325,620.0205309628717
326,620.0007434720919
327,619.9845874739456
328,619.9723839965947
329,619.9643995232184
330,619.9608382714672
331,619.9618362725097
332,619.9674572842888
333,619.9776904266323
334,619.9924493339838
335,620.0115725563268
336,620.0348248909803
337,620.061899343936
338,620.092419528218
339,620.1259424734069
340,620.1619619939355
341,620.1999129217361
342,620.2391766211899
343,620.2790882072895
344,620.3189457596134
345,620.3580216341621
346,620.3955758030067
347,620.4308710230933
348,620.4631895379061
349,620.4918509018993
350,620.5162303225052
351,620.535776654243
352,620.5500289897141
353,620.5586308060651
354,620.5613408509539
355,620.558040284832
356,620.5487359111065
357,620.533559559322
358,620.5127638506266
359,620.4867146910394
360,620.4558809036864
361,620.4208214379528
362,620.3821706160411
363,620.3406219058686
364,620.296910712656
365,620.2517966463535
366,620.2060457133235
367,620.160412960631
368,620.1156261762034
369,620.0723711449125
370,620.0312786857219
371,619.9929134490969
372,619.9577643643455
373,619.9262366404497
374,619.8986452827005
375,619.8752102176563
376,619.8560533062678
377,619.8411976551903
378,619.8305696205107
379,619.8240037622497
380,619.8212508160559
381,619.8219885166183
382,619.8258348450591
383,619.8323630437447
384,619.841117626373
385,619.8516306256454
386,619.8634373954277
387,619.8760913276938
388,619.8891768460584
389,619.9023200740693
390,619.9151967009446
391,619.9275367464536
392,619.9391261135004
393,619.9498050335803
394,619.9594637850549
395,619.9680363090729
396,619.9754924232685
397,619.9818292562553
398,619.9870624516582
399,619.9912176694972
400,619.9943228445995
401,619.9964014890273
402,619.9974671332255
403,619.997518920718
404,619.9965384416083
405,619.9944880053995
406,619.9913105608063
407,619.9869313091336
408,619.9812607896106
409,619.9741989504967
410,619.965639568566
411,619.955474421222
412,619.9435968301461
413,619.929904455251
414,619.914301416141
415,619.8966999477976
416,619.8770218728329
417,619.8552001907885
418,619.8311810614808
419,619.8049264025204
420,619.7764172032435
421,619.7456574745563
422,619.7126785509147
423,619.6775432887281
424,619.6403496084231
425,619.6012328238045
426,619.5603662646969
427,619.5179597941451
428,619.4742559628086
429,619.4295237613214
430,619.3840502089741
431,619.33813028117
432,619.2920558569804
433,619.2461044406244
434,619.2005283986858
435,619.1555453810552
436,619.1113304610112
437,619.0680103422175
438,619.0256597738421
439,618.9843001619141
440,618.9439003193849
441,618.9043793217182
442,618.8656114312118
443,618.8274329851112
444,618.7896510590903
445,618.7520536543017
446,618.7144210829961
447,618.6765380981298
448,618.6382061306657
449,618.5992548373114
450,618.5595521025429
451,618.5190116933265
452,618.4775978785136
453,618.4353264598512
454,618.3922618596861
455,618.3485102512544
456,618.3042091917209
457,618.2595146714114
458,618.2145867619433
459,618.1695751206254
460,618.1246055645239
461,618.0797687725831
462,618.035111889162
463,617.990633460066
464,617.9462818437952
465,617.9019570300336
466,617.8575156071355
467,617.8127784181954
468,617.7675402669955
469,617.7215809245283
470,617.674676647866
471,617.6266114472102
472,617.577187420182
473,617.5262335928578
474,617.4736128471577
475,617.4192266955357
476,617.3630178834453
477,617.3049709833462
478,617.245111245573
479,617.1835020372814
480,617.1202412676413
481,617.0554572356473
482,616.989304337263
483,616.9219590769379
484,616.8536168440634
485,616.784489842172
486,616.714806324224
487,616.6448109610307
488,616.5747659018539
489,616.5049519371347
490,616.4356691005709
491,616.3672360572409
492,616.2999877929099
493,616.2342714396351
494,616.1704404070383
495,616.10884720612
496,616.04983542607
497,615.9937312988916
498,615.9408352148154
499,615.8914134524198
500,615.8456902430062
501,615.8038401217996
502,615.765980458473
503,615.7321642319152
504,615.7023734581439
505,615.6765139703309
506,615.6544123050219
507,615.6358152594066
508,615.620392367872
509,615.6077412333154
510,615.5973954058511
511,615.5888343427541
512,615.5814949252043
513,615.5747840471063
514,615.5680918638612
515,615.5608053151367
516,615.5523215013393
517,615.5420604545978
518,615.5294768672674
519,615.5140704357592
520,615.4953945974349
521,615.4730635405745
522,615.4467574532684
523,615.4162260566025
524,615.3812905280977
525,615.3418439432406
526,615.2978503426609
527,615.2493424976486
528,615.1964184450375
529,615.1392369057879
530,615.078011737054
531,615.0130055529456
532,614.9445226310036
533,614.8729012768086
534,614.7985059400363
535,614.7217194625182
536,614.6429358072188
537,614.5625534724164
538,614.4809696004861
539,614.3985746004354
540,614.3157469844206
541,614.2328481700479
542,614.1502172557883
543,614.0681661128388
544,613.9869753567937
545,613.9068917614629
546,613.8281274884409
547,613.7508612191139
548,613.6752409666608
549,613.6013880896277
550,613.529401910546
551,613.459364394385
552,613.3913444971278
553,613.3254019551052
554,613.2615904052645
555,613.1999598210729
556,613.1405583375059
557,613.0834336037219
558,613.0286338178236
559,612.9762085715332
560,612.9262095741576
561,612.8786912121202
562,612.8337107303012
563,612.7913276825478
564,612.7516023183466
565,612.7145927834376
566,612.6803513050556
567,612.648919752602
568,612.6203250322548
569,612.5945747061364
570,612.5716530715927
571,612.5515177473465
572,612.5340966776877
573,612.5192854525263
574,612.506944907652
575,612.4968990229394
576,612.488933171162
577,612.4827928421532
578,612.4781830711785
579,612.4747688805356
580,612.4721770791886
581,612.469999752669
582,612.4677996657514
583,612.4651175495392
584,612.4614809148952
585,612.4564137975173
586,612.4494468461684
587,612.440127386007
588,612.4280293329565
589,612.4127629509745
590,612.3939844280335
591,612.3714051371245
592,612.3448002470534
593,612.3140160923039
594,612.2789755242159
595,612.2396804819356
596,612.1962113012195
597,612.1487227636769
598,612.0974374098237
599,612.0426370108734
600,611.9846532195991
601,611.9238582970454
602,611.8606565020318
603,611.7954763851551
604,611.728764030012
605,611.6609772579761
606,611.5925807948915
607,611.5240422660968
608,611.4558287173083
609,611.3884032901373
610,611.3222217223193
611,611.257728406123
612,611.1953517977157
613,611.135499105164
614,611.078550442311
615,611.0248529179673
616,610.9747152618825
617,610.9284035120673
618,610.8861380960799
619,610.8480924372877
620,610.8143930222795
621,610.7851206735348
622,610.7603126528587
623,610.7399652571287
624,610.7240367149338
625,610.7124503192131
626,610.7050977826659
627,610.7018428251772
628,610.7025250185925
629,610.7069638797291
630,610.7149630804977
631,610.7263144715796
632,610.7408015060196
633,610.7582017135837
634,610.7782881053835
635,610.8008296346945
636,610.8255909824776
637,610.85233199751
638,610.8808071748721
639,610.910765587111
640,610.9419516136064
641,610.9741066399508
642,611.0069717082655
643,611.0402909603927
644,611.073815617322
645,611.1073081577548
646,611.1405463265564
647,611.1733266701245
648,611.2054674618813
649,611.2368110661354
650,611.2672258852535
651,611.2966080175286
652,611.3248826818107
653,611.35200538647
654,611.3779627329158
655,611.4027726570602
656,611.4264838654898
657,611.4491742396946
658,611.4709480531465
659,611.4919319608632
660,611.5122698663797
661,611.5321169249175
662,611.551633084368
663,611.5709766705248
664,611.5902985485436
665,611.6097373209548
666,611.6294158862507
667,611.6494395300626
668,611.6698955617479
669,611.6908543123275
670,611.7123710842237
671,611.7344884743189
672,611.7572384551007
673,611.7806436921335
674,611.8047177757448
675,611.8294643324999
676,611.8548752680451
677,611.8809285239585
678,611.9075856393674
679,611.9347891822675
680,611.9624599154866
681,611.9904935173395
682,612.0187568321946
683,612.0470839105193
684,612.075272352867
685,612.103080561882
686,612.1302264248664
687,612.1563878095888
688,612.1812051578142
689,612.2042863904086
690,612.2252142073712
691,612.2435556327374
692,612.2588733903546
693,612.2707385384919
694,612.2787437932712
695,612.2825170362775
696,612.2817345037876
697,612.2761330932137
698,612.2655212058373
699,612.2497876382226
700,612.2289081710181
701,612.2029495835108
702,612.1720708597711
703,612.1365214570162
704,612.096636739208
705,612.0528309822371
706,612.0055886017104
707,611.9554543187019
708,611.9030228329347
709,611.8489283095354
710,611.7938337503952
711,611.7384202014465
712,611.6833757257249
713,611.6293840865447
714,611.5771131154573
715,611.5272028174127
716,611.4802534146195
717,611.4368137192563
718,611.397370366817
719,611.3623384580444
720,611.3320540401047
721,611.3067686470032
722,611.2866458732689
723,611.271759765491
724,611.2620947654187
725,611.257547001948
726,611.2579267800596
727,611.2629620633732
728,611.2723026692287
729,611.2855249573585
730,611.3021370438573
731,611.3215848799617
732,611.343259721775
733,611.3665074800382
734,611.3906401786458
735,611.414949354121
736,611.4387208295735
737,611.4612500214345
738,611.4818568693028
739,611.4998996473789
740,611.5147872631007
741,611.5259900096485
742,611.5330489282696
743,611.5355839052177
744,611.5333004897919
745,611.5259953075955
746,611.5135598946259
747,611.4959827527791
748,611.4733493982262
749,611.4458401955953
750,611.4137259223097
751,611.3773612469438
752,611.3371764683093
753,611.2936678630319
754,611.2473869450151
755,611.1989290040616
756,611.148921429649
757,611.0980123711092
758,611.0468601672683
759,610.9961237776399
760,610.9464542511189
761,610.898487102187
762,610.8528353479675
763,610.810082937287
764,610.7707784052943
765,610.7354287816141
766,610.7044939855762
767,610.6783820864865
768,610.6574458464813
769,610.6419808616247
770,610.6322253662037
771,610.6283614454252
772,610.6305171586096
773,610.6387690230881
774,610.6531444640623
775,610.6736240941558
776,610.7001438755989
777,610.7325972462191
778,610.770837228827
779,610.8146785000514
780,610.8638993831653
781,610.9182437230517
782,610.9774226132164
783,611.0411159937578
784,611.1089742023079
785,611.1806195925451
786,611.2556483196827
787,611.3336323653405
788,611.4141218954411
789,611.4966481175576
790,611.5807268455857
791,611.6658629257047
792,611.7515555774949
793,611.8373046391943
794,611.9226176751612
795,612.0070178513722
796,612.0900523768214
797,612.1713011447303
798,612.2503850217979
799,612.3269730966193
800,612.4007881879719
801,612.471610072646
802,612.5392761866127
803,612.603679870724
804,612.6647664656055
805,612.7225276949912
806,612.7769948685665
807,612.8282315098287
808,612.876326021769
809,612.9213848887666
810,612.9635266968315
811,613.0028770257513
812,613.0395641350217
813,613.0737153941722
814,613.1054545385138
815,613.1348999025915
816,613.1621637048646
817,613.18735232072
818,613.2105674321381
819,613.2319080030002
820,613.2514731145396
821,613.2693657216009
822,613.2856973207495
823,613.3005933747764
824,613.3141991598202
825,613.3266855155235
826,613.3382538100855
827,613.3491393494018
828,613.3596125338614
829,613.369977305513
830,613.3805667766476
831,613.3917362866769
832,613.4038543695902
833,613.4172921647889
834,613.432411749517
835,613.4495538529726
836,613.4690254681565
837,613.4910879266076
838,613.5159459864458
839,613.5437384336761
840,613.5745306293012
841,613.6083093171592
842,613.6449798454797
843,613.684365837007
844,613.7262113280906
845,613.7701854021115
846,613.8158892169334
847,613.8628650649648
848,613.9106068842523
849,613.9585716056014
850,614.006190841267
851,614.0528825744695
852,614.0980626273828
853,614.141155768069
854,614.1816063727828
855,614.2188885767501
856,614.2525158157849
857,614.2820496181004
858,614.3071075202134
859,614.3273700861365
860,614.3425871405922
861,614.3525833657479
862,614.3572633137268
863,614.3566157406433
864,614.350717074728
865,614.3397337921577
866,614.323923437069
867,614.30363397512
868,614.2793011283502
869,614.2514433179296
870,614.2206538869923
871,614.1875904386875
872,614.1529613658042
873,614.1175098607051
874,614.081995848548
875,614.0471764587157
876,614.0137858653416
877,613.9825154939055
878,613.9539956277591
879,613.9287793877389
880,613.9073299440325
881,613.8900116132503
882,613.8770851546112
883,613.868707177557
884,613.8649332404188
885,613.8657240248318
886,613.8709538985319
887,613.8804211758063
888,613.893859382177
889,613.9109487967562
890,613.9313275371604
891,613.9546015540856
892,613.9803531391716
893,614.0081478727818
894,614.0375402593513
895,614.0680785025518
896,614.0993088820545
897,614.130780052917
898,614.1620474446587
899,614.1926779045622
900,614.2222547920667
901,614.2503837746495
902,614.2766995023741
903,614.3008731461762
904,614.3226205613212
905,614.3417106861986
906,614.3579737452492
907,614.3713088351233
908,614.3816904450138
909,614.3891733886629
910,614.3938956010317
911,614.3960783443382
912,614.3960235413532
913,614.394108150365
914,614.39077569304
915,614.3865252300014
916,614.381898249184
917,614.3774641118522
918,614.3738048723267
