frame_number,force
0,692.6601600076397
1,692.6749392988921
2,692.6896108724816
3,692.7040680860308
4,692.7182064325873
5,692.7319245714815
6,692.7451253170208
7,692.7577165731899
8,692.7696122034324
9,692.7807328255464
10,692.7910065227633
11,692.8003694632381
12,692.8087664215537
13,692.816151197364
14,692.8224869278067
15,692.8277462920536
16,692.8319116088535
17,692.8349748312663
18,692.8369374463406
19,692.8378102903358
20,692.8376132914747
21,692.8363751517405
22,692.8341329772484
23,692.83093186418
24,692.8268244450845
25,692.8218703986786
26,692.8161359250154
27,692.8096931869355
28,692.8026197179171
29,692.7949977956504
30,692.7869137802901
31,692.7784574171786
32,692.7697211060297
33,692.7607991412251
34,692.7517869298819
35,692.7427801950986
36,692.7338741712443
37,692.725162796635
38,692.7167379071519
39,692.7086884333538
40,692.7010996041687
41,692.6940521620742
42,692.6876215968313
43,692.6818774066688
44,692.676882397333
45,692.6726920307386
46,692.6693538359328
47,692.6669068954988
48,692.6653814201309
49,692.6647984225226
50,692.6651694989641
51,692.6664967238659
52,692.6687726594537
53,692.6719804801742
54,692.6760942088882
55,692.6810790599419
56,692.6868918826455
57,692.6934816970021
58,692.7007903113104
59,692.7087530088295
60,692.7172992889232
61,692.7263536476507
62,692.7358363834827
63,692.7456644150518
64,692.7557520994463
65,692.7660120415853
66,692.7763558871634
67,692.7866950927194
68,692.7969416665344
69,692.8070088739624
70,692.816811900921
71,692.8262684695675
72,692.8352994005089
73,692.8438291163521
74,692.8517860821827
75,692.859103179613
76,692.865718012238
77,692.8715731417242
78,692.8766162554998
79,692.8808002692929
80,692.8840833705906
81,692.8864290120207
82,692.8878058657735
83,692.888187750772
84,692.8875535434762
85,692.8858870817527
86,692.8831770697387
87,692.879416990039
88,692.8746050275635
89,692.8687440067603
90,692.8618413412506
91,692.8539089923848
92,692.8449634312578
93,692.835025597398
94,692.8241208468644
95,692.8122788828616
96,692.7995336629333
97,692.7859232778734
98,692.7714897985046
99,692.7562790874953
100,692.7403405747322
101,692.7237269966133
102,692.7064941014618
103,692.6887003239815
104,692.6704064308095
105,692.6516751377789
106,692.6325706989935
107,692.6131584686373
108,692.593504437923
109,692.5736747509342
110,692.553735203789
111,692.5337507313727
112,692.5137848853669
113,692.4938993073932
114,692.4741532020794
115,692.4546028161657
116,692.4353009308119
117,692.4162963748543
118,692.3976335670658
119,692.3793520956725
120,692.3614863434937
121,692.3440651670007
122,692.3271116373629
123,692.3106428511837
124,692.2946698177172
125,692.2791974271863
126,692.264224501561
127,692.249743926009
128,692.2357428572853
129,692.2222030045251
130,692.2091009775403
131,692.1964086973567
132,692.184093863257
133,692.1721204698566
134,692.1604493665823
135,692.1490388506317
136,692.1378452837367
137,692.126823723153
138,692.1159285577916
139,692.1051141407214
140,692.0943354093754
141,692.0835484850542
142,692.0727112441068
143,692.0617838546207
144,692.0507292742875
145,692.0395137066419
146,692.0281070136816
147,692.0164830833361
148,692.0046201508092
149,691.992501073381
150,691.9801135585083
151,691.9674503451815
152,691.9545093387151
153,691.9412936993207
154,691.9278118847892
155,691.9140776474692
156,691.9001099856711
157,691.8859330496736
158,691.8715760027553
159,691.8570728383146
160,691.8424621551387
161,691.8277868938574
162,691.8130940382666
163,691.7984342856042
164,691.7838616900967
165,691.7694332839753
166,691.7552086795648
167,691.7412496554056
168,691.7276197294835
169,691.7143837240416
170,691.7016073288795
171,691.6893566724374
172,691.6776979109951
173,691.6666968453962
174,691.6564185722142
175,691.6469271731963
176,691.6382854438972
177,691.6305546598384
178,691.6237943763617
179,691.6180622568774
180,691.6134139236939
181,691.6099028258857
182,691.60758011956
183,691.6064945576481
184,691.6066923889088
185,691.6082172684877
186,691.61111018424
187,691.6154094035289
188,691.6211504442912
189,691.628366072367
190,691.6370863254774
191,691.647338563389
192,691.6591475432082
193,691.6725355173434
194,691.6875223492891
195,691.7041256401549
196,691.7223608579045
197,691.7422414614797
198,691.7637790126068
199,691.7869832689607
200,691.8118622536847
201,691.838422297986
202,691.86666805535
203,691.8966024875283
204,691.9282268235294
205,691.9615404934797
206,691.9965410400687
207,692.0332240116602
208,692.0715828424195
209,692.1116087252553
210,692.1532904831097
211,692.1966144436805
212,692.2415643221389
213,692.2881211155959
214,692.336263011985
215,692.3859653148388
216,692.4372003841586
217,692.4899375922171
218,692.5441432920018
219,692.5997807954881
220,692.6568103591807
221,692.7151891753415
222,692.7748713686133
223,692.8358079984228
224,692.8979470669566
225,692.9612335312413
226,693.025609317138
227,693.0910133332113
228,693.1573814828182
229,693.2246466730447
230,693.2927388197179
231,693.3615848488839
232,693.431108696495
233,693.5012313091383
234,693.5718706494545
235,693.6429417104222
236,693.7143565427147
237,693.7860242988254
238,693.8578512971036
239,693.9297411087822
240,694.0015946715002
241,694.0733104331322
242,694.1447845294257
243,694.2159109980479
244,694.2865820305044
245,694.3566882623085
246,694.4261191007834
247,694.494763088797
248,694.5625083013897
249,694.6292427708764
250,694.6948549350775
251,694.7592341028986
252,694.8222709311965
253,694.8838579067759
254,694.943889827751
255,695.002264279126
256,695.0588820978475
257,695.1136478227453
258,695.166470124814
259,695.2172622129189
260,695.2659422090909
261,695.3124334867811
262,695.35666496578
263,695.3985713591385
264,695.4380933694272
265,695.475177833206
266,695.5097778135196
267,695.5418526408637
268,695.5713679035028
269,695.5982953882043
270,695.6226129724992
271,695.6443044699977
272,695.663359431422
273,695.6797729054699
274,695.6935451645086
275,695.7046813999973
276,695.7131913917958
277,695.7190891549035
278,695.722392567421
279,695.7231229848007
280,695.7213048471999
281,695.7169652882056
282,695.7101337539616
283,695.7008416418048
284,695.6891219669986
285,695.6750090651781
286,695.6585383369359
287,695.6397460397467
288,695.6186691309097
289,695.5953451630904
290,695.5698122315274
291,695.542108969563
292,695.5122745872427
293,695.4803489465838
294,695.4463726669212
295,695.4103872542548
296,695.3724352490299
297,695.332560386686
298,695.2908077647778
299,695.2472240104187
300,695.2018574429713
301,695.1547582287393
302,695.1059785257893
303,695.0555726177173
304,695.0035970359095
305,694.9501106710779
306,694.8951748760853
307,694.8388535623725
308,694.7812132912477
309,694.7223233593588
310,694.6622558756748
311,694.6010858257118
312,694.5388911176236
313,694.4757526040502
314,694.4117540732836
315,694.346982203755
316,694.2815264775794
317,694.2154790517119
318,694.1489345882251
319,694.0819900475395
320,694.0147444500479
321,693.9472986127615
322,693.8797548684554
323,693.8122167751085
324,693.7447888231303
325,693.6775761472205
326,693.61068424903
327,693.5442187360354
328,693.4782850809153
329,693.4129884041275
330,693.3484332805092
331,693.2847235687947
332,693.2219622612445
333,693.1602513495566
334,693.0996917033413
335,693.0403829585026
336,692.9824234140933
337,692.9259099369403
338,692.8709378734143
339,692.8176009670741
340,692.7659912795772
341,692.7161991105103
342,692.6683129100625
343,692.6224191770896
344,692.5786023345953
345,692.5369445753614
346,692.4975256721232
347,692.4604227486878
348,692.4257100105821
349,692.3934584363176
350,692.3637354326542
351,692.3366044583104
352,692.3121246203588
353,692.2903502474265
354,692.2713304450047
355,692.2551086399983
356,692.2417221225613
357,692.2312015928977
358,692.2235707199794
359,692.2188457184549
360,692.2170349490766
361,692.2181385467111
362,692.222148078965
363,692.2290462380763
364,692.2388065689295
365,692.2513932365654
366,692.2667608369895
367,692.2848542551154
368,692.3056085733812
369,692.3289490344281
370,692.3547910614295
371,692.3830403399071
372,692.4135929650275
373,692.446335658731
374,692.4811460614945
375,692.5178931032012
376,692.5564374558081
377,692.5966320675966
378,692.6383227754778
379,692.6813489887106
380,692.7255444348039
381,692.7707379565223
382,692.8167543480865
383,692.8634152189338
384,692.9105398743847
385,692.9579462037211
386,693.0054515674773
387,693.0528736773327
388,693.1000314636954
389,693.1467459274405
390,693.1928409730924
391,693.2381442208065
392,693.2824877937957
393,693.3257090767675
394,693.3676514402881
395,693.4081649260694
396,693.4471068887298
397,693.4843425904395
398,693.519745745932
399,693.5531990162934
400,693.5845944503789
401,693.6138338727146
402,693.6408292164598
403,693.665502799437
404,693.6877875405983
405,693.7076271141163
406,693.7249760390561
407,693.7397997040064
408,693.7520743272844
409,693.7617868539074
410,693.7689347907805
411,693.7735259816798
412,693.775578323485
413,693.7751194249058
414,693.772186209348
415,693.7668244648077
416,693.7590883451749
417,693.7490398282448
418,693.7367481358582
419,693.7222891211705
420,693.7057446274464
421,693.6872018223271
422,693.6667525116628
423,693.644492437834
424,693.6205205685517
425,693.5949383828244
426,693.5678491608928
427,693.5393572845371
428,693.5095675533311
429,693.47858452148
430,693.4465118592765
431,693.41345174309
432,693.3795042779099
433,693.3447669564899
434,693.3093341591508
435,693.2732966985016
436,693.2367414136859
437,693.1997508187726
438,693.1624028092135
439,693.1247704289098
440,693.0869216986663
441,693.0489195050941
442,693.0108215478459
443,692.9726803429293
444,692.9345432806134
445,692.8964527371846
446,692.8584462395164
447,692.8205566800814
448,692.7828125786576
449,692.7452383864685
450,692.7078548286573
451,692.6706792810065
452,692.6337261763788
453,692.5970074357017
454,692.5605329175677
455,692.5243108798221
456,692.4883484462389
457,692.4526520716385
458,692.4172279988984
459,692.3820827004074
460,692.3472232947972
461,692.3126579285953
462,692.278396112836
463,692.2444490063488
464,692.210829639501
465,692.1775530743557
466,692.1446364996468
467,692.1120992614294
468,692.0799628322958
469,692.0482507235355
470,692.0169883454754
471,691.9862028209668
472,691.9559227554283
473,691.9261779650242
474,691.8969991640595
475,691.8684176140719
476,691.8404647395074
477,691.8131717168797
478,691.7865690450739
479,691.7606861039353
480,691.7355507071559
481,691.7111886547161
482,691.6876232902437
483,691.664875069347
484,691.6429611457704
485,691.6218949828055
486,691.6016859974749
487,691.5823392442469
488,691.563855143741
489,691.5462292609793
490,691.5294521378174
491,691.5135091847311
492,691.4983806371763
493,691.4840415807639
494,691.4704620479235
495,691.4576071872715
496,691.4454375056117
497,691.4339091807662
498,691.42297444089
499,691.4125820032224
500,691.4026775634579
501,691.3932043266245
502,691.3841035710645
503,691.3753152379317
504,691.3667785390257
505,691.3584325757375
506,691.3502169615665
507,691.3420724405779
508,691.3339414947706
509,691.3257689348028
510,691.3175024703197
511,691.3090932571355
512,691.3004964179047
513,691.2916715309703
514,691.2825830800823
515,691.2732008568937
516,691.2635003090068
517,691.2534628284124
518,691.2430759774005
519,691.2323336505303
520,691.2212361718694
521,691.2097903269871
522,691.1980093296761
523,691.1859127241635
524,691.1735262243524
525,691.1608814921494
526,691.1480158572148
527,691.1349719805589
528,691.1217974645674
529,691.1085444128348
530,691.0952689448794
531,691.082030672754
532,691.0688921479269
533,691.0559182873822
534,691.0431757876796
535,691.0307325345623
536,691.0186570135195
537,691.007017724267
538,690.9958826005026
539,690.9853184361289
540,690.9753903200973
541,690.9661610833467
542,690.9576907622584
543,690.9500360833451
544,690.9432499738905
545,690.9373811034769
546,690.9324734618308
547,690.9285659787126
548,690.9256921914109
549,690.9238799649203
550,690.923151269356
551,690.9235220185353
552,690.9250019728108
553,690.9275947083149
554,690.9312976540743
555,690.9361021981041
556,690.9419938631922
557,690.9489525519289
558,690.9569528583197
559,690.9659644407691
560,690.9759524494001
561,690.9868779999674
562,690.9986986865151
563,691.0113691249526
564,691.0248415198217
565,691.0390662465843
566,691.0539924412592
567,691.0695685879525
568,691.0857430935461
569,691.1024648386708
570,691.1196836952303
571,691.1373510022825
572,691.1554199933571
573,691.1738461693423
574,691.1925876122773
575,691.2116052368884
576,691.2308629784588
577,691.2503279175269
578,691.2699703438275
579,691.2897637636883
580,691.3096848566639
581,691.3297133883954
582,691.3498320872944
583,691.370026492641
584,691.3902847814336
585,691.4105975812836
586,691.4309577765813
587,691.4513603145364
588,691.4718020163853
589,691.4922813975319
590,691.512798499228
591,691.5333547339375
592,691.5539527465846
593,691.574596293625
594,691.5952901405776
595,691.6160399765965
596,691.6368523428122
597,691.6577345703191
598,691.6786947239085
599,691.6997415484162
600,691.720884415357
601,691.7421332682866
602,691.763498566057
603,691.7849912235055
604,691.806622549156
605,691.8284041795993
606,691.8503480104312
607,691.8724661236599
608,691.8947707112329
609,691.9172739942067
610,691.9399881375851
611,691.962925162031
612,691.9860968549959
613,692.00951468473
614,692.0331897207933
615,692.057132564194
616,692.0813532893707
617,692.1058613990308
618,692.1306657913775
619,692.1557747378918
620,692.1811958691857
621,692.2069361666194
622,692.2330019579714
623,692.2593989161429
624,692.2861320605631
625,692.3132057615082
626,692.340623747848
627,692.3683891187894
628,692.3965043600016
629,692.4249713639932
630,692.453791453989
631,692.4829654100777
632,692.5124934960055
633,692.5423754843489
634,692.5726106770121
635,692.6031979174627
636,692.6341355910284
637,692.6654216096067
638,692.6970533768784
639,692.7290277296163
640,692.7613408504895
641,692.7939881485752
642,692.8269641058887
643,692.8602620913357
644,692.8938741467081
645,692.9277907518481
646,692.9620005775074
647,692.9964902346877
648,693.0312440285713
649,693.0662437242133
650,693.1014683307261
651,693.1368939106794
652,693.172493420987
653,693.2082365901707
654,693.2440898349066
655,693.280016216714
656,693.3159754378997
657,693.3519238748644
658,693.3878146467707
659,693.423597717871
660,693.4592200318735
661,693.4946256767569
662,693.529756079067
663,693.5645502282035
664,693.5989449329155
665,693.6328751132636
666,693.6662741311286
667,693.69907416106
668,693.7312066011865
669,693.7626025213814
670,693.7931931433149
671,693.8229103447351
672,693.8516871783154
673,693.8794583937164
674,693.9061609506456
675,693.9317345112385
676,693.9561219019389
677,693.9792695373778
678,694.0011278006839
679,694.0216513760253
680,694.0407995303601
681,694.058536342676
682,694.0748308803535
683,694.0896573234155
684,694.1029950382505
685,694.1148286031175
686,694.1251477885088
687,694.1339474960574
688,694.1412276598842
689,694.1469931140598
690,694.1512534293074
691,694.1540227213211
692,694.1553194326216
693,694.1551660903554
694,694.1535890439117
695,694.150618188008
696,694.1462866782707
697,694.1406306469928
698,694.1336889265292
699,694.1255027865006
700,694.1161156886462
701,694.105573060207
702,694.0939220838418
703,694.0812114999035
704,694.0674914158308
705,694.0528131174431
706,694.0372288777642
707,694.0207917602013
708,694.0035554141834
709,693.9855738625173
710,693.9669012804262
711,693.9475917662711
712,693.9276991035952
713,693.9072765140585
714,693.8863764013566
715,693.8650500870608
716,693.843347540294
717,693.8213171045323
718,693.7990052263797
719,693.7764561919785
720,693.7537118763455
721,693.7308115099089
722,693.70779146575
723,693.684685070943
724,693.6615224457652
725,693.6383303747549
726,693.6151322129153
727,693.5919478287523
728,693.5687935840364
729,693.5456823489415
730,693.5226235506184
731,693.4996232529043
732,693.4766842644532
733,693.4538062722412
734,693.4309859973739
735,693.40821737033
736,693.3854917227272
737,693.3627979921457
738,693.3401229361024
739,693.3174513518491
740,693.2947663002892
741,693.2720493339455
742,693.2492807298808
743,693.2264397292289
744,693.2035047860747
745,693.1804538293487
746,693.157264541254
747,693.1339146544049
748,693.110382267948
749,693.0866461809898
750,693.0626862397505
751,693.0384836930898
752,693.0140215498184
753,692.9892849309026
754,692.9642614099419
755,692.9389413354091
756,692.9133181278942
757,692.887388545679
758,692.8611529131408
759,692.8346153085417
760,692.8077837097327
761,692.7806700972262
762,692.753290513898
763,692.7256650799798
764,692.697817961788
765,692.6697772932383
766,692.641575050859
767,692.6132468855141
768,692.5848319163168
769,692.5563724930028
770,692.5279139320854
771,692.4995042302971
772,692.4711937572356
773,692.4430349286002
774,692.4150818620074
775,692.3873900183952
776,692.3600158325506
777,692.3330163359014
778,692.3064487735548
779,692.2803702160301
780,692.2548371648936
781,692.2299051511952
782,692.2056283263673
783,692.1820590463722
784,692.1592474503501
785,692.1372410346937
786,692.116084223347
787,692.0958179362593
788,692.0764791604948
789,692.0581005317885
790,692.0407099372239
791,692.0243301514054
792,692.0089785188871
793,691.9946666948807
794,691.9814004545663
795,691.9691795791642
796,691.9579978247176
797,691.9478429772587
798,691.9386969954191
799,691.9305362387319
800,691.9233317771822
801,691.91704977498
802,691.911651938936
803,691.9070960195834
804,691.9033363517767
805,691.9003244209396
806,691.8980094411102
807,691.8963389315088
808,691.8952592798946
809,691.894716283438
810,691.894655660649
811,691.8950235305347
812,691.895766857484
813,691.8968338623497
814,691.8981744014573
815,691.8997403153018
816,691.9014857474994
817,691.9033674327901
818,691.9053449513785
819,691.9073809462504
820,691.909441300512
821,691.911495273002
822,691.9135155920244
823,691.9154785087727
824,691.9173638136134
825,691.9191548195273
826,691.9208383175339
827,691.922404508944
828,691.923846918802
829,691.9251622939554
830,691.9263504883287
831,691.9274143376691
832,691.9283595259948
833,691.9291944454062
834,691.9299300495713
835,691.9305796998848
836,691.9311590030659
837,691.9316856397697
838,691.9321791846279
839,691.9326609180664
840,691.9331536292735
841,691.9336814084559
842,691.9342694256687
843,691.9349436933887
844,691.9357308106356
845,691.9366576874776
846,691.9377512495427
847,691.9390381223845
848,691.9405442955714
849,691.94229476706
850,691.944313170358
851,691.9466213896538
852,691.9492391701998
853,691.9521837321491
854,691.9554693963685
855,691.9591072310584
856,691.9631047281973
857,691.9674655185269
858,691.972189132826
859,691.9772708153861
860,691.982701393152
861,691.9884672018891
862,691.9945500696206
863,692.0009273569096
864,692.0075720523869
865,692.0144529201747
866,692.0215346941231
867,692.0287783126001
868,692.0361411873755
869,692.0435775011147
870,692.0510385296386
871,692.0584729863815
872,692.0658273867859
873,692.0730464301616
874,692.0800733965908
875,692.0868505569871
876,692.0933195949659
877,692.0994220394854
878,692.1050997073961
879,692.1102951551336
880,692.1149521384035
881,692.1190160775845
882,692.122434525083
883,692.1251576294799
884,692.1271385900914
885,692.1283340944633
886,692.1287047304882
887,692.1282153645158
888,692.1268354773566
889,692.1245394517036
890,692.1213068069057
891,692.1171223793133
892,692.1119764478667
893,692.1058648053572
894,692.0987887765291
895,692.0907551853662
896,692.0817762753868
897,692.0718695880851
898,692.0610578055029
899,692.0493685634859
900,692.0368342427982
901,692.0234917457964
902,692.0093822662072
903,691.9945510583223
904,691.9790472100498
905,691.962923422768
906,691.9462358002476
907,691.9290436484524
908,691.9114092870155
909,691.893397871662
910,691.8750772253122
911,691.8565176742258
912,691.837791884166
913,691.8189746901928
914,691.8001429129208
915,691.7813751546157
916,691.762751570412
917,691.7443536124995
