frame_number,force
0,804.4827746577182
1,804.5001168625863
2,804.5218808052441
3,804.5480819782603
4,804.5786238713348
5,804.6133006033147
6,804.651801384132
7,804.6937168741027
8,804.7385476216858
9,804.7857148787554
10,804.8345741629838
11,804.8844318484132
12,804.9345647710788
13,804.9842424040122
14,805.032750712159
15,805.0794164717696
16,805.1236307135431
17,805.1648700105973
18,805.2027144888359
19,805.2368616140637
20,805.2671350107524
21,805.2934878266684
22,805.316000473147
23,805.3348729151984
24,805.3504120444248
25,805.3630150112581
26,805.3731496657255
27,805.381333429734
28,805.3881119858754
29,805.3940390637025
30,805.3996582959887
31,805.4054876873553
32,805.4120068645451
33,805.4196470933769
34,805.4287840320667
35,805.43973322559
36,805.4527483473113
37,805.4680221417235
38,805.4856899169322
39,805.5058353205329
40,805.528498083426
41,805.5536834358326
42,805.5813728786625
43,805.6115358146064
44,805.6441412104991
45,805.6791681284435
46,805.7166138366822
47,805.7564984158686
48,805.7988652769988
49,805.8437776366386
50,805.8913115393364
51,805.9415463226121
52,805.9945534689604
53,806.0503846921144
54,806.1090600142156
55,806.1705565830081
56,806.2347989953544
57,806.3016518257461
58,806.370914874693
59,806.4423214204445
60,806.5155395698881
61,806.5901766887602
62,806.6657867919488
63,806.741880626635
64,806.8179379907107
65,806.8934216675515
66,806.9677923014365
67,807.0405236117003
68,807.1111174924195
69,807.1791186556387
70,807.2441284689231
71,807.3058175347372
72,807.3639364647706
73,807.4183243016913
74,807.4689141272858
75,807.5157355238308
76,807.5589137088296
77,807.5986653333847
78,807.6352911083912
79,807.6691656136086
80,807.7007248560873
81,807.730452304993
82,807.7588641351289
83,807.7864942555307
84,807.8138795191443
85,807.8415454430987
86,807.8699928088156
87,807.8996855570786
88,807.931040396716
89,807.9644185190834
90,808.0001197381259
91,808.0383792101617
92,808.079366637088
93,808.1231876157328
94,808.1698866718298
95,808.2194515406251
96,808.271818362772
97,808.3268775637126
98,808.3844802446877
99,808.4444449550155
100,808.5065647539866
101,808.570614498428
102,808.6363582922158
103,808.7035569903802
104,808.7719755554585
105,808.8413899410269
106,808.9115931020601
107,808.9823997823961
108,809.0536498780885
109,809.1252102979595
110,809.1969752829167
111,809.2688651720862
112,809.3408236792557
113,809.4128138393664
114,809.4848128385349
115,809.5568059239869
116,809.6287795387988
117,809.7007138308885
118,809.7725748082809
119,809.8443066062167
120,809.9158244776295
121,809.9870091396184
122,810.0577030263962
123,810.1277088901642
124,810.1967910972644
125,810.2646798584788
126,810.3310784547599
127,810.3956732524155
128,810.4581459892113
129,810.5181875626197
130,810.5755124675103
131,810.629873113202
132,810.6810733897119
133,810.7289809425056
134,810.7735376278207
135,810.8147675854074
136,810.8527823327082
137,810.8877823296407
138,810.9200546395566
139,810.9499665802845
140,810.9779555368445
141,811.0045153780896
142,811.030180213086
143,811.055506505276
144,811.081054718302
145,811.1073716095591
146,811.1349740497521
147,811.1643349305755
148,811.1958713889236
149,811.2299352717491
150,811.2668056006406
151,811.3066828551695
152,811.349685095133
153,811.3958460756445
154,811.4451154424834
155,811.4973608827086
156,811.5523719136446
157,811.6098649540252
158,811.6694894534847
159,811.7308350766957
160,811.793440110831
161,811.8568012756932
162,811.9203849580014
163,811.9836396912181
164,812.0460096069952
165,812.1069486050249
166,812.1659349981202
167,812.222486293683
168,812.2761736294433
169,812.3266353180916
170,812.3735890139988
171,812.4168421362943
172,812.4563003018258
173,812.4919736139342
174,812.523980700766
175,812.5525503789175
176,812.5780207591996
177,812.6008355996677
178,812.6215378202969
179,812.6407603027653
180,812.6592143134716
181,812.6776760234353
182,812.6969716365118
183,812.7179616024993
184,812.7415242960294
185,812.7685394032577
186,812.7998711601709
187,812.8363516248432
188,812.8787643180135
189,812.9278286923269
190,812.9841858841523
191,813.0483860757563
192,813.1208776412857
193,813.2019981780421
194,813.2919675886942
195,813.390883497675
196,813.4987192951417
197,813.6153249460613
198,813.7404304939456
199,813.8736520680453
200,814.0145001625308
201,814.1623898919017
202,814.316652829941
203,814.4765500118467
204,814.6412857535285
205,814.8100220329205
206,814.9818932295916
207,815.1560210676183
208,815.3315296674106
209,815.5075606217434
210,815.6832879424921
211,815.8579326515883
212,816.0307767676566
213,816.2011764040582
214,816.3685735573158
215,816.5325059713913
216,816.6926143827471
217,816.84864660897
218,817.0004582908789
219,817.1480104765465
220,817.2913645286477
221,817.4306750030084
222,817.5661811636395
223,817.6981976548245
224,817.8271045898962
225,817.9533370660401
226,818.0773740184807
227,818.1997264346046
228,818.320925174429
229,818.4415088464411
230,818.5620122661677
231,818.6829559677824
232,818.8048371184487
233,818.9281220791769
234,819.0532407635237
235,819.1805828144772
236,819.3104954511457
237,819.4432826971423
238,819.5792056444695
239,819.7184834260202
240,819.8612946376835
241,820.0077790515239
242,820.1580395614942
243,820.3121443098136
244,820.4701287944733
245,820.6319975655239
246,820.797725064621
247,820.9672552756249
248,821.1405000107393
249,821.3173357900895
250,821.4975994218294
251,821.6810825759643
252,821.8675258143879
253,822.0566126308453
254,822.2479640740529
255,822.4411345504712
256,822.6356095035766
257,822.8308058279732
258,823.0260759762892
259,823.2207166131391
260,823.4139823125847
261,823.6051042415563
262,823.7933131427127
263,823.9778653854595
264,824.1580705513896
265,824.3333190038192
266,824.5031080324916
267,824.6670653026548
268,824.8249684415833
269,824.9767597249047
270,825.1225550034148
271,825.2626462354168
272,825.3974972930646
273,825.5277331047472
274,825.6541225989757
275,825.777556235961
276,825.8990191360566
277,826.0195609547173
278,826.1402637069164
279,826.2622087304502
280,826.3864439603886
281,826.5139527165785
282,826.645625274808
283,826.7822345235454
284,826.9244168927944
285,827.0726594270368
286,827.2272934229624
287,827.3884945994774
288,827.5562894183234
289,827.7305669337289
290,827.9110953521614
291,828.0975422954918
292,828.2894976267061
293,828.4864976554941
294,828.6880495515107
295,828.8936547977082
296,829.1028305364317
297,829.3151277738854
298,829.5301456544473
299,829.7475413772909
300,829.967035746952
301,830.1884147264236
302,830.4115275873522
303,830.6362822961671
304,830.8626387079947
305,831.0906000677495
306,831.3202033088016
307,831.5515086905006
308,831.7845893571721
309,832.019521347199
310,832.2563743875112
311,832.4952035148286
312,832.7360413039629
313,832.9788904228463
314,833.2237164369178
315,833.4704411284371
316,833.718936863348
317,833.969022603102
318,834.2204620528232
319,834.4729642708031
320,834.7261869259605
321,834.9797422903223
322,835.2332059421415
323,835.4861280097168
324,835.7380466520896
325,835.9885033888957
326,836.2370598235485
327,836.4833151787591
328,836.7269238554973
329,836.9676120076074
330,837.2051920178499
331,837.4395738387304
332,837.6707724014527
333,837.8989106410293
334,838.1242180839472
335,838.3470253269879
336,838.5677550177945
337,838.786910086103
338,839.0050599818028
339,839.2228255984417
340,839.4408634708186
341,839.6598498021265
342,839.8804648922165
343,840.1033785050749
344,840.3292365485456
345,840.5586491906145
346,840.7921803530047
347,841.0303384996377
348,841.2735687131146
349,841.5222460934957
350,841.7766704792492
351,842.037062451895
352,842.3035606007508
353,842.5762200660392
354,842.8550124107004
355,843.1398269106712
356,843.4304734079209
357,843.7266868655255
358,844.0281336133211
359,844.3344190084383
360,844.6450960089123
361,844.959674115341
362,845.2776282983397
363,845.5984077866107
364,845.9214447985194
365,846.2461633981948
366,846.5719886532655
367,846.8983561712554
368,847.2247219190726
369,847.5505720647255
370,847.8754324919753
371,848.1988776170289
372,848.5205381448997
373,848.8401074460505
374,849.1573463304313
375,849.4720861453751
376,849.784230294172
377,850.0937543779673
378,850.4007051167808
379,850.7051980246714
380,851.007413627463
381,851.3075919516965
382,851.60602513099
383,851.9030482120875
384,852.1990284820606
385,852.4943538101228
386,852.7894205961428
387,853.0846219298545
388,853.3803364695833
389,853.6769183978367
390,853.974688717789
391,854.2739281824803
392,854.5748722317487
393,854.8777083203641
394,855.1825758989463
395,855.4895691159106
396,855.7987421132832
397,856.1101165864025
398,856.423691037282
399,856.7394509080439
400,857.057378617158
401,857.3774624818143
402,857.6997035887288
403,858.0241198712779
404,858.3507469606662
405,858.679635753227
406,859.0108469835122
407,859.3444433271148
408,859.680479651388
409,860.0189920490366
410,860.3599863230598
411,860.7034266727384
412,861.0492254286333
413,861.3972347685369
414,861.7472413696204
415,862.0989648216463
416,862.4520602846954
417,862.8061253918354
418,863.160710916825
419,863.5153343747389
420,863.8694955781223
421,864.2226932367616
422,864.574441869397
423,864.9242884458426
424,865.271828196004
425,865.6167189256663
426,865.9586931085668
427,866.2975671108192
428,866.6332471227945
429,866.9657315896259
430,867.2951100613661
431,867.621558468471
432,867.9453309636149
433,868.2667486817381
434,868.5861859737164
435,868.9040547940132
436,869.2207880004277
437,869.5368223939203
438,869.8525823359704
439,870.1684646645494
440,870.4848254296338
441,870.801968791234
442,871.1201382996602
443,871.4395106603388
444,871.7601919506965
445,872.0822161376277
446,872.405545686672
447,872.7300740775781
448,873.0556300931852
449,873.3819837296372
450,873.7088534606629
451,874.0359144625266
452,874.3628073477958
453,874.6891469565567
454,875.0145307794487
455,875.3385466522002
456,875.6607794992881
457,875.9808171027461
458,876.2982550651999
459,876.6127012393706
460,876.9237798567525
461,877.2311354401394
462,877.5344364465614
463,877.8333785518715
464,878.1276875221773
465,878.4171216234369
466,878.7014734697515
467,878.9805711476063
468,879.2542784247337
469,879.5224938888468
470,879.7851489706418
471,880.042204947554
472,880.2936491260457
473,880.5394904118594
474,880.7797544245368
475,881.0144782688377
476,881.2437050866081
477,881.4674785600644
478,881.6858375739383
479,881.8988112327261
480,882.1064143672894
481,882.3086435843884
482,882.5054738539541
483,882.6968556160789
484,882.882712425014
485,883.0629392118599
486,883.2374013139134
487,883.4059344667487
488,883.5683459605418
489,883.7244170953876
490,883.8739069392341
491,884.0165572497538
492,884.1520983124511
493,884.2802553906615
494,884.4007555020102
495,884.5133343376069
496,884.6177432679012
497,884.7137564310627
498,884.8011778190468
499,884.879848123505
500,884.9496510114636
501,885.0105185417514
502,885.0624355668657
503,885.105443105809
504,885.1396407502892
505,885.1651881408488
506,885.1823054402256
507,885.1912726071681
508,885.1924271978395
509,885.1861604261496
510,885.1729113008364
511,885.1531587828035
512,885.1274120019423
513,885.0961986054575
514,885.0600513136599
515,885.0194928059913
516,884.9750192060724
517,884.9270826867366
518,884.8760740231736
519,884.8223061762632
520,884.7660000717054
521,884.7072736321294
522,884.6461349114924
523,884.5824799489048
524,884.5160956917608
525,884.4466680329584
526,884.3737947076638
527,884.2970025125348
528,884.2157680341146
529,884.1295408634725
530,884.0377682212719
531,883.9399200079786
532,883.8355134083312
533,883.7241362109427
534,883.6054679387565
535,883.4792978199911
536,883.3455387240456
537,883.2042365149133
538,883.0555747059454
539,882.8998746256074
540,882.7375914459997
541,882.5693064627231
542,882.3957160292964
543,882.2176175263098
544,882.0358926618028
545,881.8514883440422
546,881.665395453584
547,881.4786260464424
548,881.2921897212461
549,881.1070699936112
550,880.924201531051
551,880.7444490325553
552,880.5685884033371
553,880.3972906920188
554,880.2311090588112
555,880.0704688843191
556,879.915661060554
557,879.7668385231456
558,879.6240161134943
559,879.4870738434146
560,879.3557635754763
561,879.2297190336376
562,879.1084689200238
563,878.9914527771051
564,878.8780391298243
565,878.7675453389385
566,878.6592584907224
567,878.5524566075425
568,878.4464295374578
569,878.3404990224772
570,878.2340375500763
571,878.1264855918135
572,878.0173667555275
573,877.9063003207989
574,877.7930106536816
575,877.6773330875258
576,877.5592159693535
577,877.4387186944083
578,877.3160056995043
579,877.1913365758526
580,877.0650526944092
581,876.9375609744739
582,876.8093155930253
583,876.680798458106
584,876.5524991786464
585,876.4248951892824
586,876.2984327354037
587,876.1735095365843
588,876.0504599806816
589,875.9295435813921
590,875.8109372162829
591,875.6947314555799
592,875.5809311195771
593,875.469460000651
594,875.3601694225466
595,875.2528500468801
596,875.1472461555371
597,875.0430715548329
598,874.9400262101776
599,874.8378126709138
600,874.7361513157732
601,874.6347935433334
602,874.5335322623591
603,874.4322092754887
604,874.3307192879198
605,874.2290103391358
606,874.1270805559976
607,874.0249713455456
608,873.9227574769156
609,873.8205348243372
610,873.7184067411988
611,873.616470091251
612,873.5148019006814
613,873.4134474364117
614,873.3124103254127
615,873.2116451681959
616,873.1110529353604
617,873.0104792135983
618,872.9097151214676
619,872.808500514106
620,872.706528958035
621,872.6034538896146
622,872.4988953826695
623,872.3924470009819
624,872.2836822471126
625,872.1721601612659
626,872.0574297453197
627,871.9390331183031
628,871.816507587437
629,871.689387021918
630,871.5572029569173
631,871.4194857401008
632,871.2757658514164
633,871.1255753929364
634,870.9684497281692
635,870.8039293386934
636,870.6315621096867
637,870.4509063929274
638,870.2615352277695
639,870.0630419490554
640,869.8550471371697
641,869.6372066312697
642,869.4092202203486
643,869.1708406046641
644,868.9218821994443
645,868.6622292944429
646,868.3918430110419
647,868.1107664834067
648,867.8191277879698
649,867.5171403429765
650,867.2051007321335
651,866.883384109862
652,866.5524374822899
653,866.2127712152505
654,865.864949093622
655,865.5095771484604
656,865.147291332908
657,864.7787440666183
658,864.4045897443395
659,864.0254695051266
660,863.6419958547881
661,863.2547380638107
662,862.8642094488705
663,862.4708574884332
664,862.0750572418451
665,861.6771080113652
666,861.2772328711723
667,860.8755806116128
668,860.4722296766698
669,860.0671937302541
670,859.6604285898064
671,859.2518404012119
672,858.8412950107047
673,858.428628449144
674,858.0136583068121
675,857.5961956270281
676,857.1760568429057
677,856.7530752098376
678,856.3271111028437
679,855.8980604741583
680,855.4658607886493
681,855.030493898707
682,854.5919855158945
683,854.1504011431228
684,853.70583859926
685,853.2584176327425
686,852.8082674965796
687,852.3555135930202
688,851.9002643198905
689,851.442599120035
690,850.982558555277
691,850.520137069123
692,850.0552789937219
693,849.5878782579406
694,849.117782063479
695,848.6447984512783
696,848.1687072554063
697,847.6892735877109
698,847.2062628049924
699,846.7194558827553
700,846.2286642278094
701,845.7337431691778
702,845.2346036086502
703,844.7312215236076
704,844.2236451799984
705,843.7120000551505
706,843.1964915993229
707,842.677406062043
708,842.155109621784
709,841.6300459366744
710,841.1027320303608
711,840.573752284304
712,840.0437503082337
713,839.5134185707624
714,838.9834858406398
715,838.4547026892448
716,837.927825520324
717,837.403599822538
718,836.8827435439634
719,836.3659315412266
720,835.8537818612583
721,835.3468442316688
722,834.8455907572809
723,834.3504086150443
724,833.8615945307351
725,833.3793509089368
726,832.9037835839716
727,832.4349012359187
728,831.9726165432777
729,831.516749092272
730,831.0670299677538
731,830.6231078790895
732,830.1845566306673
733,829.7508836864923
734,829.3215395003289
735,828.8959272533433
736,828.4734127163279
737,828.0533340884251
738,827.6350117402492
739,827.2177577575997
740,826.8008851278756
741,826.3837164360579
742,825.9655920307977
743,825.5458777021121
744,825.1239719393027
745,824.6993128234909
746,824.2713845683031
747,823.8397236682503
748,823.4039245736816
749,822.9636448033822
750,822.5186094253107
751,822.0686148517417
752,821.6135318717614
753,821.1533077863561
754,820.6879674754554
755,820.2176132775888
756,819.7424237220855
757,819.2626513542016
758,818.7786200081807
759,818.2907218394048
760,817.7994142584828
761,817.3052166979303
762,816.808706976841
763,816.3105169980267
764,815.8113276248743
765,815.3118627400328
766,814.8128825718499
767,814.3151763602852
768,813.8195543570039
769,813.3268390538519
770,812.8378554616546
771,812.3534202916276
772,811.874330065035
773,811.4013484433689
774,810.9351933184695
775,810.4765243432859
776,810.0259316204267
777,809.5839262422927
778,809.1509332821889
779,808.7272876006672
780,808.3132324545271
781,807.9089205120217
782,807.5144166379908
783,807.1297017475127
784,806.7546770783679
785,806.3891683592278
786,806.0329295362228
787,805.685645931447
788,805.3469368996498
789,805.0163582122797
790,804.6934045449956
791,804.3775125619599
792,804.0680651112441
793,803.7643969016899
794,803.4658017423212
795,803.1715411213777
796,802.8808537135411
797,802.5929653446303
798,802.307098946079
799,802.0224840581136
800,801.7383654966492
801,801.4540108864285
802,801.1687168709826
803,800.8818139342889
804,800.5926699020619
805,800.3006922971599
806,800.0053297601054
807,799.7060727239354
808,799.4024535220367
809,799.0940461411125
810,798.7804658694545
811,798.4613691036147
812,798.1364535723103
813,797.8054592010751
814,797.4681697530983
815,797.1244152721367
816,796.7740752639565
817,796.4170824609896
818,796.0534268774081
819,795.6831596921924
820,795.3063963480271
821,794.9233181744013
822,794.5341718904638
823,794.1392665504925
824,793.7389678105491
825,793.3336897094243
826,792.9238843988943
827,792.5100304185625
828,792.0926201951496
829,791.672147461421
830,791.2490952484208
831,790.8239250008817
832,790.3970671856803
833,789.9689135428147
834,789.5398109594397
835,789.1100569006818
836,788.6798963861285
837,788.2495205727263
838,787.8190670230995
839,787.3886216717316
840,786.9582223435339
841,786.5278634764103
842,786.0975015560563
843,785.6670607706302
844,785.2364385422663
845,784.8055108559514
846,784.3741376261476
847,783.9421686109001
848,783.5094504575092
849,783.0758352416491
850,782.6411903896209
851,782.2054093716536
852,781.7684222647749
853,781.3302052706003
854,780.8907884364406
855,780.4502610784107
856,780.0087747047806
857,779.5665435041008
858,779.1238425971501
859,778.6810042701683
860,778.2384124169323
861,777.796495479703
862,777.3557182698021
863,776.9165731121291
864,776.479570745044
865,776.0452313025287
866,775.6140755419789
867,775.1866163120734
868,774.7633501258483
869,774.3447486492988
870,773.9312499640876
871,773.523249617151
872,773.1210916838752
873,772.7250602651101
874,772.335371942718
875,771.9521696997401
876,771.575518676982
877,771.2054039466059
878,770.8417303265302
879,770.4843242061547
880,770.1329374055562
881,769.7872531676644
882,769.4468943821349
883,769.111434040975
884,768.7804077944476
885,768.4533283372499
886,768.129701169027
887,767.8090410310336
888,767.4908880877008
889,767.174822796293
890,766.8604784575612
891,766.5475506596227
892,766.2358031772128
893,765.9250703324827
894,765.6152562471372
895,765.3063316298898
896,764.9983286873193
897,764.6913345739673
898,764.3854837028343
899,764.0809492858826
900,763.7779345783549
901,763.476664291463
902,763.1773764302418
903,762.8803145228532
904,762.5857200255531
905,762.2938246867042
906,762.0048427944545
907,761.7189634551643
908,761.4363432616115
909,761.1570997916019
910,760.8813062796087
911,760.6089876027843
912,760.3401175578888
913,760.0746173852662
914,759.812355633966
915,759.553149673162
916,759.296769302984
