frame_number,force
0,804.4827746571608
1,804.5001168620291
2,804.521880804692
3,804.5480819777184
4,804.5786238708084
5,804.6133006028086
6,804.6518013836506
7,804.6937168736498
8,804.7385476212645
9,804.785714878368
10,804.8345741626318
11,804.8844318480974
12,804.9345647707992
13,804.9842424037682
14,805.0327507119498
15,805.0794164715937
16,805.1236307133986
17,805.1648700104816
18,805.2027144887462
19,805.2368616139972
20,805.2671350107069
21,805.2934878266418
22,805.3160004731378
23,805.3348729152052
24,805.3504120444462
25,805.3630150112918
26,805.3731496657683
27,805.3813334297814
28,805.3881119859224
29,805.3940390637439
30,805.3996582960194
31,805.4054876873707
32,805.4120068645409
33,805.4196470933484
34,805.4287840320093
35,805.4397332254987
36,805.4527483471819
37,805.4680221415524
38,805.4856899167171
39,805.5058353202724
40,805.5284980831198
41,805.5536834354814
42,805.5813728782689
43,805.6115358141749
44,805.6441412100354
45,805.6791681279545
46,805.7166138361763
47,805.7564984153539
48,805.7988652764824
49,805.8437776361263
50,805.8913115388327
51,805.9415463221208
52,805.9945534684842
53,806.050384691656
54,806.1090600137763
55,806.1705565825886
56,806.2347989949546
57,806.3016518253658
58,806.3709148743312
59,806.442321420101
60,806.5155395695626
61,806.5901766884523
62,806.6657867916578
63,806.741880626359
64,806.8179379904481
65,806.8934216673002
66,806.9677923011942
67,807.0405236114643
68,807.1111174921868
69,807.1791186554068
70,807.2441284686892
71,807.3058175344987
72,807.3639364645253
73,807.4183243014373
74,807.4689141270222
75,807.5157355235581
76,807.5589137085492
77,807.5986653330991
78,807.6352911081025
79,807.6691656133186
80,807.7007248557976
81,807.7304523047055
82,807.758864134845
83,807.7864942552509
84,807.8138795188681
85,807.8415454428253
86,807.8699928085445
87,807.8996855568085
88,807.9310403964461
89,807.9644185188131
90,808.0001197378549
91,808.03837920989
92,808.0793666368155
93,808.1231876154588
94,808.1698866715534
95,808.219451540345
96,808.2718183624871
97,808.3268775634224
98,808.3844802443925
99,808.4444449547168
100,808.5065647536867
101,808.5706144981294
102,808.6363582919206
103,808.7035569900896
104,808.7719755551736
105,808.8413899407487
106,808.9115931017897
107,808.9823997821342
108,809.0536498778356
109,809.1252102977159
110,809.1969752826824
111,809.268865171861
112,809.3408236790391
113,809.4128138391576
114,809.4848128383315
115,809.5568059237859
116,809.6287795385969
117,809.700713830682
118,809.7725748080661
119,809.8443066059896
120,809.9158244773854
121,809.9870091393525
122,810.0577030261026
123,810.1277088898366
124,810.1967910968976
125,810.264679858068
126,810.3310784543015
127,810.395673251907
128,810.4581459886521
129,810.5181875620102
130,810.575512466853
131,810.6298731125006
132,810.6810733889707
133,810.7289809417299
134,810.7735376270159
135,810.814767584579
136,810.852782331862
137,810.8877823287821
138,810.9200546386903
139,810.9499665794145
140,810.9779555359743
141,811.0045153772222
142,811.0301802122246
143,811.0555065044238
144,811.0810547174617
145,811.1073716087332
146,811.1349740489428
147,811.1643349297847
148,811.1958713881534
149,811.2299352710014
150,811.2668055999171
151,811.3066828544722
152,811.3496850944642
153,811.3958460750057
154,811.4451154418757
155,811.4973608821324
156,811.5523719130985
157,811.6098649535064
158,811.6694894529898
159,811.73083507622
160,811.7934401103705
161,811.8568012752435
162,811.9203849575578
163,811.9836396907757
164,812.046009606549
165,812.1069486045694
166,812.1659349976503
167,812.2224862931938
168,812.2761736289308
169,812.3266353175525
170,812.3735890134309
171,812.416842135697
172,812.4563003012
173,812.4919736132819
174,812.5239807000893
175,812.5525503782194
176,812.5780207584831
177,812.6008355989362
178,812.6215378195542
179,812.6407603020153
180,812.6592143127186
181,812.677676022684
182,812.6969716357661
183,812.7179616017625
184,812.7415242953044
185,812.7685394025474
186,812.7998711594784
187,812.8363516241711
188,812.8787643173647
189,812.9278286917047
190,812.984185883561
191,813.0483860752005
192,813.1208776407693
193,813.2019981775686
194,813.2919675882667
195,813.3908834972963
196,813.4987192948134
197,813.6153249457847
198,813.7404304937207
199,813.8736520678722
200,814.0145001624091
201,814.1623898918305
202,814.3166528299174
203,814.4765500118679
204,814.6412857535904
205,814.8100220330188
206,814.981893229721
207,815.156021067773
208,815.3315296675845
209,815.5075606219299
210,815.683287942684
211,815.8579326517778
212,816.0307767678348
213,816.2011764042161
214,816.3685735574446
215,816.5325059714827
216,816.6926143827935
217,816.8486466089643
218,817.0004582908149
219,817.1480104764189
220,817.2913645284523
221,817.4306750027414
222,817.5661811632975
223,817.6981976544052
224,817.8271045893985
225,817.9533370654646
226,818.0773740178297
227,818.1997264338823
228,818.3209251736414
229,818.4415088455955
230,818.5620122652723
231,818.6829559668461
232,818.8048371174809
233,818.9281220781878
234,819.0532407625242
235,819.1805828134779
236,819.3104954501576
237,819.4432826961759
238,819.5792056435345
239,819.7184834251256
240,819.8612946368373
241,820.0077790507324
242,820.1580395607615
243,820.312144309142
244,820.4701287938635
245,820.6319975649745
246,820.7977250641301
247,820.9672552751895
248,821.1405000103554
249,821.317335789752
250,821.4975994215315
251,821.681082575698
252,821.8675258141446
253,822.0566126306167
254,822.247964073831
255,822.4411345502486
256,822.635609503347
257,822.8308058277321
258,823.0260759760334
259,823.2207166128668
260,823.4139823122955
261,823.60510424125
262,823.7933131423894
263,823.9778653851192
264,824.1580705510327
265,824.333319003445
266,824.5031080320995
267,824.6670653022438
268,824.8249684411525
269,824.9767597244536
270,825.1225550029433
271,825.2626462349248
272,825.3974972925522
273,825.527733104215
274,825.6541225984249
275,825.7775562353935
276,825.8990191354746
277,826.0195609541234
278,826.1402637063134
279,826.2622087298415
280,826.3864439597783
281,826.5139527159714
282,826.6456252742097
283,826.782234522961
284,826.9244168922289
285,827.0726594264951
286,827.2272934224487
287,827.3884945989955
288,827.5562894178756
289,827.7305669333163
290,827.9110953517842
291,828.0975422951498
292,828.2894976263979
293,828.4864976552178
294,828.6880495512637
295,828.8936547974869
296,829.1028305362324
297,829.3151277737043
298,829.5301456542804
299,829.7475413771343
300,829.9670357468025
301,830.1884147262783
302,830.411527587208
303,830.6362822960203
304,830.8626387078415
305,831.0906000675861
306,831.3202033086251
307,831.5515086903088
308,831.784589356964
309,832.0195213469757
310,832.2563743872753
311,832.4952035145834
312,832.736041303712
313,832.9788904225938
314,833.2237164366672
315,833.4704411281916
316,833.7189368631109
317,833.9690226028762
318,834.2204620526105
319,834.4729642706052
320,834.7261869257793
321,834.9797422901607
322,835.2332059420031
323,835.4861280096045
324,835.7380466520052
325,835.9885033888395
326,836.2370598235194
327,836.4833151787548
328,836.7269238555149
329,836.9676120076434
330,837.2051920179008
331,837.4395738387932
332,837.6707724015235
333,837.8989106411042
334,838.1242180840221
335,838.3470253270581
336,838.5677550178551
337,838.7869100861495
338,839.0050599818306
339,839.2228255984462
340,839.4408634707952
341,839.6598498020708
342,839.880464892125
343,840.1033785049444
344,840.3292365483736
345,840.5586491903991
346,840.7921803527445
347,841.0303384993314
348,841.2735687127617
349,841.5222460930959
350,841.7766704788022
351,842.0370624514009
352,842.3035606002104
353,842.5762200654552
354,842.8550124100764
355,843.1398269100121
356,843.4304734072324
357,843.7266868648139
358,844.0281336125929
359,844.3344190077001
360,844.6450960081709
361,844.9596741146025
362,845.2776282976101
363,845.5984077858952
364,845.9214447978229
365,846.2461633975217
366,846.5719886526191
367,846.8983561706373
368,847.2247219184842
369,847.5505720641679
370,847.8754324914493
371,848.1988776165348
372,848.5205381444376
373,848.8401074456204
374,849.1573463300329
375,849.4720861450078
376,849.7842302938343
377,850.0937543776571
378,850.4007051164953
379,850.7051980244071
380,851.0074136272159
381,851.3075919514613
382,851.6060251307609
383,851.9030482118588
384,852.1990284818276
385,852.4943538098809
386,852.7894205958879
387,853.0846219295823
388,853.3803364692901
389,853.6769183975198
390,853.9746887174471
391,854.2739281821135
392,854.5748722313574
393,854.877708319948
394,855.1825758985051
395,855.4895691154435
396,855.7987421127895
397,856.1101165858813
398,856.423691036733
399,856.7394509074672
400,857.0573786165547
401,857.3774624811861
402,857.6997035880773
403,858.024119870606
404,858.3507469599774
405,858.6796357525257
406,859.0108469828037
407,859.3444433264052
408,859.6804796506834
409,860.018992048343
410,860.3599863223832
411,860.7034266720843
412,861.0492254280065
413,861.3972347679407
414,861.7472413690577
415,862.0989648211191
416,862.452060284205
417,862.8061253913825
418,863.1607109164098
419,863.5153343743613
420,863.8694955777811
421,864.2226932364555
422,864.574441869124
423,864.9242884456011
424,865.2718281957917
425,865.6167189254816
426,865.9586931084082
427,866.2975671106857
428,866.6332471226854
429,866.9657315895403
430,867.2951100613026
431,867.6215584684284
432,867.9453309635919
433,868.2667486817334
434,868.5861859737284
435,868.9040547940407
436,869.220788000469
437,869.5368223939734
438,869.8525823360328
439,870.1684646646194
440,870.4848254297095
441,870.8019687913137
442,871.1201382997418
443,871.4395106604197
444,871.7601919507733
445,872.0822161376966
446,872.4055456867286
447,872.7300740776185
448,873.0556300932058
449,873.3819837296348
450,873.7088534606345
451,874.0359144624688
452,874.3628073477046
453,874.689146956428
454,875.0145307792783
455,875.3385466519846
456,875.6607794990248
457,875.9808171024342
458,876.2982550648403
459,876.612701238966
460,876.9237798563075
461,877.2311354396593
462,877.5344364460525
463,877.8333785513413
464,878.1276875216334
465,878.4171216228872
466,878.701473469203
467,878.9805711470653
468,879.2542784242061
469,879.5224938883373
470,879.7851489701544
471,880.042204947092
472,880.2936491256116
473,880.5394904114543
474,880.7797544241613
475,881.0144782684915
476,881.2437050862904
477,881.4674785597746
478,881.6858375736756
479,881.8988112324904
480,882.1064143670817
481,882.3086435842091
482,882.5054738538026
483,882.6968556159546
484,882.8827124249156
485,883.062939211786
486,883.2374013138626
487,883.4059344667193
488,883.568345960532
489,883.7244170953953
490,883.8739069392565
491,884.0165572497879
492,884.1520983124943
493,884.2802553907112
494,884.4007555020638
495,884.5133343376618
496,884.6177432679542
497,884.7137564311101
498,884.8011778190851
499,884.8798481235301
500,884.9496510114714
501,885.010518541738
502,885.0624355668278
503,885.1054431057437
504,885.1396407501942
505,885.1651881407225
506,885.1823054400679
507,885.1912726069801
508,885.1924271976239
509,885.1861604259108
510,885.1729113005792
511,885.1531587825338
512,885.1274120016658
513,885.0961986051805
514,885.060051313389
515,885.0194928057336
516,884.9750192058347
517,884.927082686525
518,884.8760740229932
519,884.8223061761176
520,884.7660000715969
521,884.7072736320576
522,884.6461349114553
523,884.5824799488989
524,884.5160956917811
525,884.4466680329982
526,884.3737947077155
527,884.2970025125906
528,884.215768034166
529,884.1295408635118
530,884.037768221292
531,883.9399200079729
532,883.8355134082935
533,883.724136210868
534,883.6054679386413
535,883.4792978198336
536,883.3455387238457
537,883.2042365146704
538,883.0555747056584
539,882.8998746252752
540,882.7375914456215
541,882.5693064622982
542,882.3957160288236
543,882.2176175257885
544,882.0358926612329
545,881.8514883434243
546,881.6653954529196
547,881.4786260457332
548,881.2921897204945
549,881.1070699928197
550,880.9242015302223
551,880.744449031692
552,880.5685884024432
553,880.3972906910989
554,880.2311090578704
555,880.0704688833636
556,879.915661059591
557,879.7668385221831
558,879.6240161125405
559,879.4870738424772
560,879.3557635745633
561,879.2297190327563
562,879.1084689191805
563,878.9914527763051
564,878.8780391290728
565,878.7675453382404
566,878.6592584900824
567,878.5524566069639
568,878.446429536943
569,878.3404990220268
570,878.23403754969
571,878.1264855914903
572,878.0173667552662
573,877.9063003205979
574,877.7930106535395
575,877.67733308744
576,877.5592159693209
577,877.4387186944243
578,877.3160056995631
579,877.1913365759481
580,877.0650526945346
581,876.9375609746223
582,876.80931559319
583,876.6807984582798
584,876.552499178822
585,876.4248951894529
586,876.2984327355615
587,876.1735095367223
588,876.0504599807923
589,875.929543581468
590,875.8109372163163
591,875.6947314555631
592,875.5809311195031
593,875.4694600005138
594,875.3601694223411
595,875.2528500466024
596,875.1472461551851
597,875.0430715544065
598,874.9400262096783
599,874.8378126703443
600,874.7361513151377
601,874.6347935426369
602,874.5335322616075
603,874.4322092746899
604,874.3307192870827
605,874.2290103382705
606,874.1270805551145
607,874.0249713446549
608,873.9227574760268
609,873.820534823459
610,873.7184067403385
611,873.6164700904153
612,873.5148018998758
613,873.4134474356407
614,873.31241032468
615,873.2116451675046
616,873.1110529347128
617,873.0104792129954
618,872.9097151209097
619,872.8085005135938
620,872.706528957569
621,872.6034538891945
622,872.4988953822947
623,872.3924470006507
624,872.2836822468229
625,872.1721601610144
626,872.0574297451028
627,871.939033118117
628,871.8165075872774
629,871.6893870217801
630,871.5572029567961
631,871.4194857399914
632,871.2757658513149
633,871.1255753928396
634,870.9684497280753
635,870.8039293386022
636,870.6315621095991
637,870.4509063928444
638,870.2615352276916
639,870.0630419489843
640,869.8550471371075
641,869.6372066312186
642,869.4092202203099
643,869.1708406046381
644,868.9218821994306
645,868.6622292944406
646,868.3918430110506
647,868.1107664834254
648,867.8191277879978
649,867.5171403430129
650,867.2051007321778
651,866.8833841099138
652,866.5524374823484
653,866.2127712153158
654,865.8649490936948
655,865.5095771485417
656,865.1472913329985
657,864.7787440667179
658,864.4045897444473
659,864.0254695052412
660,863.6419958549072
661,863.254738063931
662,862.8642094489869
663,862.4708574885394
664,862.0750572419339
665,861.6771080114296
666,861.2772328712059
667,860.8755806116101
668,860.4722296766261
669,860.0671937301661
670,859.6604285896719
671,859.2518404010293
672,858.8412950104731
673,858.4286284488641
674,858.0136583064865
675,857.596195626661
676,857.1760568425025
677,856.7530752094045
678,856.3271111023881
679,855.898060473688
680,855.465860788172
681,855.0304938982304
682,854.5919855154256
683,854.1504011426683
684,853.7058385988261
685,853.258417632334
686,852.8082674961998
687,852.355513592671
688,851.9002643195721
689,851.4425991197464
690,850.9825585550162
691,850.5201370688866
692,850.0552789935062
693,849.5878782577428
694,849.1177820632962
695,848.6447984511077
696,848.1687072552443
697,847.6892735875534
698,847.2062628048354
699,846.7194558825947
700,846.2286642276416
701,845.7337431689999
702,845.2346036084606
703,844.7312215234058
704,844.2236451797847
705,843.7120000549261
706,843.1964915990891
707,842.6774060618013
708,842.1551096215356
709,841.6300459364206
710,841.1027320301032
711,840.573752284044
712,840.0437503079735
713,839.5134185705044
714,838.9834858403864
715,838.4547026889977
716,837.9278255200846
717,837.4035998223071
718,836.8827435437411
719,836.365931541012
720,835.8537818610498
721,835.3468442314638
722,834.8455907570764
723,834.350408614837
724,833.8615945305212
725,833.3793509087122
726,832.903783583733
727,832.4349012356627
728,831.9726165430012
729,831.5167490919725
730,831.0670299674296
731,830.6231078787399
732,830.1845566302931
733,829.7508836860951
734,829.3215394999114
735,828.8959272529088
736,828.4734127158797
737,828.0533340879667
738,827.635011739784
739,827.2177577571315
740,826.8008851274086
741,826.3837164355963
742,825.9655920303454
743,825.5458777016727
744,825.1239719388791
745,824.6993128230853
746,824.2713845679168
747,823.8397236678845
748,823.4039245733376
749,822.9636448030604
750,822.5186094250116
751,822.0686148514653
752,821.6135318715079
753,821.1533077861257
754,820.6879674752483
755,820.2176132774059
756,819.7424237219277
757,819.2626513540699
758,818.7786200080761
759,818.2907218393276
760,817.7994142584325
761,817.3052166979061
762,816.8087069768413
763,816.3105169980499
764,815.8113276249182
765,815.311862740095
766,814.812882571927
767,814.3151763603738
768,813.8195543570997
769,813.3268390539507
770,812.8378554617522
771,812.3534202917202
772,811.8743300651195
773,811.4013484434429
774,810.9351933185317
775,810.4765243433358
776,810.0259316204639
777,809.5839262423167
778,809.150933282198
779,808.7272876006593
780,808.3132324544999
781,807.9089205119722
782,807.5144166379155
783,807.1297017474079
784,806.7546770782301
785,806.3891683590539
786,806.0329295360095
787,805.6856459311919
788,805.3469368993511
789,805.0163582119361
790,804.6934045446062
791,804.3775125615242
792,804.0680651107626
793,803.7643969011646
794,803.465801741755
795,803.1715411207744
796,802.8808537129056
797,802.5929653439681
798,802.3070989453959
799,802.0224840574153
800,801.7383654959417
801,801.4540108857178
802,801.1687168702747
803,800.8818139335896
804,800.5926699013768
805,800.300692296494
806,800.0053297594632
807,799.7060727233205
808,799.4024535214515
809,799.0940461405585
810,798.780465868932
811,798.4613691031223
812,798.1364535718445
813,797.8054592006316
814,797.4681697526717
815,797.1244152717211
816,796.7740752635463
817,796.4170824605796
818,796.0534268769946
819,795.6831596917722
820,795.3063963475976
821,794.9233181739606
822,794.5341718900107
823,794.1392665500262
824,793.738967810069
825,793.3336897089307
826,792.9238843983878
827,792.5100304180453
828,792.092620194625
829,791.6721474608923
830,791.2490952478906
831,790.823925000352
832,790.3970671851527
833,789.9689135422908
834,789.5398109589212
835,789.1100569001698
836,788.6798963856232
837,788.2495205722278
838,787.8190670226077
839,787.3886216712466
840,786.9582223430558
841,786.5278634759388
842,786.0975015555907
843,785.6670607701697
844,785.2364385418097
845,784.8055108554973
846,784.3741376256949
847,783.9421686104477
848,783.5094504570558
849,783.0758352411934
850,782.6411903891614
851,782.2054093711884
852,781.7684222643019
853,781.3302052701174
854,780.8907884359461
855,780.4502610779033
856,780.0087747042597
857,779.5665435035664
858,779.1238425966029
859,778.6810042696095
860,778.2384124163638
861,777.7964954791271
862,777.3557182692218
863,776.9165731115477
864,776.4795707444645
865,776.0452313019534
866,775.6140755414101
867,775.186616311513
868,774.7633501252976
869,774.3447486487581
870,773.9312499635566
871,773.5232496166295
872,773.1210916833629
873,772.725060264607
874,772.3353719422242
875,771.9521696992562
876,771.5755186765092
877,771.2054039461459
878,770.8417303260846
879,770.4843242057251
880,770.1329374051439
881,769.7872531672709
882,769.4468943817611
883,769.1114340406214
884,768.7804077941142
885,768.4533283369368
886,768.1297011687337
887,767.8090410307593
888,767.490888087444
889,767.1748227960516
890,766.8604784573322
891,766.5475506594025
892,766.2358031769968
893,765.9250703322663
894,765.6152562469154
895,765.3063316296578
896,764.998328687073
897,764.6913345737037
898,764.3854837025509
899,764.0809492855778
900,763.7779345780284
901,763.4766642911155
902,763.1773764298752
903,762.8803145224698
904,762.5857200251563
905,762.2938246862974
906,762.0048427940408
907,761.7189634547467
908,761.4363432611927
909,761.1570997911841
910,760.8813062791933
911,760.6089876023722
912,760.3401175574808
913,760.0746173848622
914,759.8123556335656
915,759.5531496727642
916,759.2967693025877
