frame_number,force
0,804.6311926863506
1,804.655880035156
2,804.6808581482277
3,804.706093584666
4,804.7315476095669
5,804.7571764578523
6,804.7829317720586
7,804.8087612142784
8,804.8346092551882
9,804.8604181461866
10,804.886129081728
11,804.9116835527255
12,804.937024876251
13,804.962099864906
14,804.9868605772601
15,805.011266074793
16,805.0352841047793
17,805.0588926318702
18,805.0820811493523
19,805.1048517106472
20,805.127219632672
21,805.1492138368441
22,805.170876810599
23,805.1922641909507
24,805.2134439911042
25,805.2344955099674
26,805.2555079798952
27,805.2765790187512
28,805.2978129577182
29,805.319319113606
30,805.3412100618226
31,805.3635999475939
32,805.3866028568905
33,805.4103312610999
34,805.4348945497887
35,805.4603976683118
36,805.4869398775653
37,805.5146136508664
38,805.5435037178514
39,805.5736862594761
40,805.6052282552707
41,805.638186984132
42,805.6726096779131
43,805.7085333173916
44,805.7459845430328
45,805.7849796356064
46,805.8255245140924
47,805.8676147063142
48,805.9112352697015
49,805.9563606676014
50,806.0029546304773
51,806.0509700438653
52,806.100348905298
53,806.1510223858005
54,806.2029110252769
55,806.2559250888214
56,806.3099651099343
57,806.3649226416426
58,806.4206812261436
59,806.4771175811035
60,806.5341029905135
61,806.5915048814132
62,806.6491885621991
63,806.7070190906114
64,806.7648632301382
65,806.8225914458986
66,806.8800798886718
67,806.9372123198697
68,806.9938819382531
69,807.0499930757272
70,807.1054627307526
71,807.1602219048242
72,807.2142167050488
73,807.2674091780933
74,807.3197778473142
75,807.3713179335117
76,807.4220412496563
77,807.4719757706681
78,807.5211648902028
79,807.5696663880019
80,807.6175511438013
81,807.6649016436515
82,807.7118103267549
83,807.7583778152665
84,807.8047110624129
85,807.8509214522722
86,807.8971228872873
87,807.9434299022637
88,807.9899558439445
89,808.0368111538386
90,808.0841017880784
91,808.1319277994577
92,808.1803820938811
93,808.2295493607522
94,808.2795051694543
95,808.3303152235648
96,808.3820347677324
97,808.4347081450137
98,808.4883685033806
99,808.5430376501369
100,808.598726052875
101,808.6554329850187
102,808.7131468121742
103,808.7718454116934
104,808.8314967117129
105,808.8920593285904
106,808.95348327673
107,809.0157107259658
108,809.0786767876657
109,809.1423103156311
110,809.2065347090241
111,809.2712687052132
112,809.3364271535523
113,809.4019217653748
114,809.4676618378508
115,809.5335549484984
116,809.5995076147675
117,809.6654259135216
118,809.7312160613685
119,809.7967849663964
120,809.8620407693312
121,809.9268933937584
122,809.9912551219023
123,810.0550412081241
124,810.1181705387929
125,810.1805663431109
126,810.2421569522227
127,810.3028765925449
128,810.3626661858028
129,810.4214741178735
130,810.479256936115
131,810.535979940433
132,810.5916176416587
133,810.6461540667672
134,810.6995828927538
135,810.7519073909629
136,810.8031401636597
137,810.8533026582319
138,810.9024244540601
139,810.9505423309358
140,810.9976991419442
141,811.0439425271715
142,811.0893235188323
143,811.1338951017887
144,811.1777108004691
145,811.2208233597476
146,811.2632835749964
147,811.305139310129
148,811.3464347248918
149,811.3872097162191
150,811.4274995683718
151,811.467334806955
152,811.5067412588257
153,811.5457403234942
154,811.5843494556531
155,811.622582845566
156,811.660452272186
157,811.6979680993877
158,811.7351403895518
159,811.7719801170115
160,811.808500470168
161,811.8447182300641
162,811.8806552045589
163,811.9163396870464
164,811.9518079038734
165,811.987105415826
166,812.0222884402384
167,812.057425056928
168,812.0925962560184
169,812.127896784819
170,812.1634357562417
171,812.1993369898855
172,812.2357390658103
173,812.272795078902
174,812.3106720876872
175,812.3495502544212
176,812.389621674338
177,812.4310888952425
178,812.4741631375509
179,812.5190622383717
180,812.566008356713
181,812.615225486315
182,812.666936826975
183,812.7213620657085
184,812.778714616169
185,812.8391988592458
186,812.9030074236107
187,812.9703185467504
188,813.0412935635804
189,813.1160745744723
190,813.1947823424042
191,813.2775144605964
192,813.3643438218093
193,813.4553174137503
194,813.5504554643853
195,813.6497509625038
196,813.7531695751004
197,813.8606499712756
198,813.9721045479437
199,814.0874205423498
200,814.2064615100214
201,814.3290691394094
202,814.4550653658061
203,814.5842547420519
204,814.7164270237021
205,814.8513599277135
206,814.9888220237146
207,815.1285757173448
208,815.2703802867063
209,815.4139949327016
210,815.5591818006344
211,815.7057089274707
212,815.8533530691749
213,816.0019023624837
214,816.1511587711634
215,816.3009402602746
216,816.4510826412643
217,816.6014410416988
218,816.7518909737588
219,816.9023289976651
220,817.0526729943653
221,817.2028620740623
222,817.3528561523694
223,817.5026352233228
224,817.6521983502956
225,817.8015623879795
226,817.9507604478034
227,818.0998401276977
228,818.2488615409244
229,818.397895190996
230,818.5470197456657
231,818.6963197620302
232,818.8458834103341
233,818.9958002398141
234,819.1461590258002
235,819.2970457308464
236,819.4485416039331
237,819.6007214339583
238,819.7536519693454
239,819.9073905144633
240,820.0619837143445
241,820.2174665411864
242,820.3738614977927
243,820.5311780500949
244,820.6894122903387
245,820.848546819665
246,821.0085508324731
247,821.1693803864755
248,821.3309788459173
249,821.4932774879551
250,821.656196265552
251,821.8196447255193
252,821.9835230850181
253,822.1477234710723
254,822.312131325779
255,822.4766269785686
256,822.6410873896023
257,822.8053880744721
258,822.9694052239774
259,823.1330180272181
260,823.2961111891681
261,823.4585776080407
262,823.6203211488951
263,823.7812594256164
264,823.9413264911165
265,824.100475337397
266,824.2586801168842
267,824.4159380064493
268,824.5722706442806
269,824.7277250799937
270,824.8823741911253
271,825.036316534217
272,825.1896756175311
273,825.3425986055036
274,825.4952544884029
275,825.647831769871
276,825.8005357392511
277,825.953585405534
278,826.1072101750756
279,826.2616463568801
280,826.4171335801708
281,826.5739112115469
282,826.7322148628919
283,826.8922730827144
284,827.0543043176095
285,827.2185142145591
286,827.385093311871
287,827.5542151431171
288,827.7260347595985
289,827.9006876629306
290,828.0782891272121
291,828.2589338784311
292,828.4426960894145
293,828.6296296436562
294,828.8197686189147
295,829.013127938844
296,829.209704139179
297,829.4094761978201
298,829.6124063874962
299,829.8184411247001
300,830.0275118065856
301,830.2395356437219
302,830.4544165058493
303,830.6720457985971
304,830.8923033848405
305,831.1150585600038
306,831.3401710893961
307,831.5674923174269
308,831.7968663599685
309,832.0281313881108
310,832.2611210020134
311,832.4956656793047
312,832.7315942698577
313,832.9687355057457
314,833.2069195047376
315,833.4459792619894
316,833.6857521373586
317,833.926081349048
318,834.1668174795677
319,834.4078199925543
320,834.648958753034
321,834.8901155397646
322,835.1311855339766
323,835.3720787630971
324,835.6127214730645
325,835.853057400465
326,836.0930489143072
327,836.3326779933302
328,836.5719469970892
329,836.8108791810653
330,837.0495189035317
331,837.2879314782493
332,837.5262026411882
333,837.7644376185998
334,838.0027598054182
335,838.2413090837783
336,838.480239827368
337,838.7197186462531
338,838.9599219292874
339,839.2010332393804
340,839.443240614155
341,839.6867338241219
342,839.9317016420464
343,840.1783291759679
344,840.4267953104489
345,840.6772702883366
346,840.9299134556918
347,841.1848711901254
348,841.442275034648
349,841.7022400590055
350,841.9648634664148
351,842.2302234590766
352,842.4983783735762
353,842.7693660961097
354,843.0432037656822
355,843.3198877719003
356,843.5993940531464
357,843.8816786972819
358,844.1666788365574
359,844.4543138126911
360,844.7444865743622
361,845.037085264584
362,845.3319849607149
363,845.6290495399603
364,845.9281336513486
365,846.2290847784542
366,846.5317453760059
367,846.8359550582073
368,847.1415528082847
369,847.4483791712197
370,847.7562783881276
371,848.0651004308044
372,848.374702896832
373,848.6849527294645
374,848.9957277331885
375,849.3069178652983
376,849.6184262944735
377,849.9301702251009
378,850.2420814866989
379,850.5541068821198
380,850.8662082822588
381,851.1783624550405
382,851.4905606248276
383,851.8028077722702
384,852.1151216984673
385,852.42753188776
386,852.7400782102
387,853.0528095070765
388,853.365782099853
389,853.6790582568576
390,853.9927046485279
391,854.3067908238984
392,854.6213877452378
393,854.9365664181324
394,855.2523966482054
395,855.5689459459218
396,855.8862785908336
397,856.2044548559604
398,856.5235303803657
399,856.8435556650347
400,857.1645756578433
401,857.4866293898732
402,857.8097496273117
403,858.1339625106219
404,858.4592871654881
405,858.7857352858865
406,859.1133107041879
407,859.4420089723826
408,859.7718169810692
409,860.102712641769
410,860.4346646579128
411,860.7676324119743
412,861.1015659992885
413,861.4364064416044
414,861.7720861132202
415,862.1085294052298
416,862.4456536362827
417,862.7833701946381
418,863.1215858730493
419,863.460204341132
420,863.79912769309
421,864.1382580121857
422,864.4774989026049
423,864.8167569474595
424,865.1559430537704
425,865.4949736421727
426,865.8337716374317
427,866.1722672218681
428,866.5103983262122
429,866.8481108448068
430,867.1853585704282
431,867.5221028502114
432,867.8583119727367
433,868.1939603084134
434,868.5290272368788
435,868.8634959028167
436,869.1973518468019
437,869.5305815623899
438,869.8631710321154
439,870.195104290259
440,870.5263620511499
441,870.8569204334397
442,871.1867498047527
443,871.5158137650878
444,871.8440682802233
445,872.1714609697756
446,872.4979305506804
447,872.8234064366487
448,873.1478084951799
449,873.4710469612489
450,873.7930224997011
451,874.1136264007614
452,874.4327408886758
453,874.7502395219619
454,875.0659876634907
455,875.3798430003538
456,875.6916560987954
457,876.0012709878217
458,876.3085257733707
459,876.6132532890776
460,876.9152817872523
461,877.2144356662761
462,877.5105362238817
463,877.8034024240703
464,878.0928516671796
465,878.3787005531807
466,878.6607656262876
467,878.9388640864594
468,879.2128144526278
469,879.4824371648828
470,879.7475551187383
471,880.0079941320708
472,880.2635833508583
473,880.5141556010989
474,880.7595476924183
475,880.9996006774029
476,881.2341600717406
477,881.4630760429504
478,881.6862035775715
479,881.9034026364159
480,882.1145383047209
481,882.3194809402893
482,882.5181063199192
483,882.7102957837442
484,882.8959363786511
485,883.0749210048245
486,883.2471485724058
487,883.4125241773155
488,883.5709593053305
489,883.7223720701364
490,883.8666874846925
491,884.0038377583822
492,884.1337626072136
493,884.2564095616824
494,884.3717342579531
495,884.4797007030638
496,884.5802815112551
497,884.6734581114115
498,884.7592209222756
499,884.837569485421
500,884.9085125422409
501,884.9720680438584
502,885.0282630899403
503,885.0771337998241
504,885.1187251237151
505,885.1530906011557
506,885.1802920693553
507,885.2003993185574
508,885.2134896883576
509,885.2196475992797
510,885.218964018041
511,885.2115358607304
512,885.1974653422839
513,885.1768592815964
514,885.1498283709794
515,885.1164864198612
516,885.0769495883287
517,885.031335636668
518,884.9797632300784
519,884.9223513480987
520,884.8592188504751
521,884.7904842442382
522,884.716265685076
523,884.6366812333373
524,884.5518493706866
525,884.4618897675132
526,884.366924275772
527,884.2670781075927
528,884.1624811462664
529,884.0532693260238
530,883.9395860146441
531,883.8215833377739
532,883.6994233902171
533,883.5732792823102
534,883.4433359681274
535,883.3097908011979
536,883.1728537703045
537,883.0327473861529
538,882.8897062130153
539,882.7439760578864
540,882.5958128394527
541,882.4454811639137
542,882.2932526382804
543,882.139403953401
544,881.9842147674575
545,881.8279654202004
546,881.6709345140505
547,881.5133964092844
548,881.3556186909623
549,881.1978596709107
550,881.0403659884443
551,880.8833703696123
552,880.7270895973007
553,880.5717227342227
554,880.4174496293684
555,880.2644297284986
556,880.1128012032674
557,879.9626804113375
558,879.8141616980006
559,879.6673175456572
560,879.5221990712439
561,879.3788368635843
562,879.2372421427207
563,879.0974082136429
564,878.9593121789406
565,878.8229168673835
566,878.6881729281326
567,878.5550210364978
568,878.423394159216
569,878.2932198329663
570,878.164422414303
571,878.0369252590908
572,877.9106527862465
573,877.7855323786972
574,877.6614960769274
575,877.53848202635
576,877.4164356469404
577,877.2953105015255
578,877.1750688484441
579,877.0556818757442
580,876.9371296276153
581,876.8194006475533
582,876.702491373152
583,876.5864053210199
584,876.47115209826
585,876.356746275529
586,876.2432061608032
587,876.130552520016
588,876.018807293807
589,875.9079923551751
590,875.798128343575
591,875.6892336019652
592,875.5813232357143
593,875.474408303094
594,875.3684951348337
595,875.2635847678603
596,875.1596724697516
597,875.0567473264307
598,874.9547918637362
599,874.8537816709908
600,874.7536849930876
601,874.6544622618364
602,874.5560655479887
603,874.4584379264056
604,874.3615127530654
605,874.2652128554
606,874.1694496417962
607,874.0741221460594
608,873.9791160377953
609,873.8843026443267
610,873.7895380383943
611,873.6946622476706
612,873.5994986381409
613,873.503853514744
614,873.4075159723506
615,873.3102580210814
616,873.2118350006755
617,873.1119862864434
618,873.0104362759758
619,872.9068956344815
620,872.8010627682982
621,872.6926254911194
622,872.5812628462719
623,872.4666470490256
624,872.348445512959
625,872.2263229248294
626,872.0999433367249
627,871.9689722539375
628,871.8330787090648
629,871.6919373215298
630,871.5452303428887
631,871.3926496822971
632,871.2338988976026
633,871.0686951311291
634,870.8967709686169
635,870.7178762044606
636,870.5317795039672
637,870.3382699608733
638,870.1371585511579
639,869.9282794785094
640,869.7114913955801
641,869.4866784760356
642,869.2537513095501
643,869.0126475932395
644,868.7633325945741
645,868.5057993607021
646,868.2400686484472
647,867.9661885513052
648,867.6842338072074
649,867.3943047829465
650,867.0965261448664
651,866.791045237626
652,866.4780302017056
653,866.1576678651954
654,865.8301614460413
655,865.4957280974133
656,865.1545963237426
657,864.8070032930276
658,864.453192075229
659,864.0934088463529
660,863.7279001117626
661,863.3569100174188
662,862.9806778257224
663,862.5994356239551
664,862.2134063089636
665,861.8228018647633
666,861.4278219327131
667,861.0286526680575
668,860.6254658756046
669,860.21841841749
670,859.8076518882027
671,859.3932925557937
672,858.9754515693569
673,858.5542254282914
674,858.1296966997332
675,857.7019349609228
676,857.2709979359574
677,856.8369327907423
678,856.3997775439243
679,855.9595625462103
680,855.5163119798298
681,855.0700453352471
682,854.620778830219
683,854.1685267449958
684,853.713302659298
685,853.255120593307
686,852.7939960722381
687,852.3299471449515
688,851.8629953880413
689,851.3931669207141
690,850.9204934474727
691,850.4450133386246
692,849.9667727541395
693,849.4858268125967
694,849.0022407990523
695,848.5160913906429
696,848.0274678601353
697,847.5364732026493
698,847.0432251237504
699,846.547856828078
700,846.0505175553337
701,845.5513728229945
702,845.0506043495009
703,844.5484096447343
704,844.0450012655957
705,843.5406057444478
706,843.0354622075669
707,842.5298207085776
708,842.0239403055854
709,841.5180869079901
710,841.012530912123
711,840.5075446406537
712,840.0033996030359
713,839.5003636014503
714,838.9986977162874
715,838.4986532158619
716,838.0004684459803
717,837.5043657661055
718,837.0105486082446
719,836.5191987364503
720,836.0304737742806
721,835.544505047643
722,835.0613957702134
723,834.5812195861587
724,834.1040194813622
725,833.6298070750399
726,833.1585623043989
727,832.6902335145545
728,832.2247379629488
729,831.7619627406432
730,831.3017661038589
731,830.8439792012318
732,830.3884081757277
733,829.9348366129797
734,829.483028299965
735,829.0327302526398
736,828.5836759711223
737,828.1355888841724
738,827.6881859454729
739,827.2411813402979
740,826.7942902566374
741,826.3472326745725
742,825.899737131201
743,825.4515444218474
744,825.0024111996914
745,824.5521134359205
746,824.1004497017335
747,823.6472442326219
748,823.1923497355745
749,822.7356499020773
750,822.2770615937261
751,821.8165366714159
752,821.3540634417069
753,820.8896676952508
754,820.423413314728
755,819.9554024366398
756,819.4857751634433
757,819.0147088367067
758,818.5424168920756
759,818.0691473193967
760,817.5951807478879
761,817.1208281705473
762,816.6464283183253
763,816.1723446970273
764,815.6989623088795
765,815.2266840913132
766,814.7559271123649
767,814.2871185638586
768,813.8206915918655
769,813.357081000671
770,812.8967188640516
771,812.4400300796066
772,811.9874279100948
773,811.5393095678695
774,811.0960519091957
775,810.6580073104202
776,810.2254997976999
777,809.7988214984521
778,809.378229475367
779,808.9639429894532
780,808.5561412171687
781,808.1549614246592
782,807.7604975867289
783,807.3727994308891
784,806.9918718849988
785,806.6176749086751
786,806.2501236931225
787,805.8890892197485
788,805.53439917289
789,805.1858392056721
790,804.8431545611521
791,804.5060520528696
792,804.1742024066039
793,803.8472429552974
794,803.5247806627112
795,803.2063954346653
796,802.8916436658739
797,802.580061966103
798,802.2711710084674
799,801.9644794433244
800,801.6594878236892
801,801.3556924924635
802,801.0525893875355
803,800.749677727727
804,800.4464635502666
805,800.1424630772619
806,799.8372058924242
807,799.5302379105898
808,799.2211241246679
809,798.909451119022
810,798.5948293430755
811,798.2768951426456
812,797.9553125495166
813,797.629774831351
814,797.3000058031314
815,796.9657608993915
816,796.6268280054488
817,796.2830280445967
818,795.9342153146632
819,795.5802775620905
820,795.2211357771812
821,794.856743692753
822,794.48708697279
823,794.1121820893455
824,793.7320749024477
825,793.3468389738829
826,792.9565736580469
827,792.5614020211527
828,792.1614686442236
829,791.7569373658016
830,791.3479890177628
831,790.9348192018011
832,790.5176361443889
833,790.096658656069
834,789.6721142111813
835,789.2442371599528
836,788.8132670853959
837,788.3794473186242
838,787.9430236247499
839,787.5042430660031
840,787.0633530388836
841,786.6206004702307
842,786.176231148113
843,785.7304891613824
844,785.2836164269771
845,784.8358522949501
846,784.3874332350009
847,783.9385926199662
848,783.489560624419
849,783.0405642454342
850,782.591827429912
851,782.1435712690733
852,781.696014207335
853,781.2493722127573
854,780.8038588648519
855,780.3596853285037
856,779.9170601982387
857,779.4761892111254
858,779.0372748344998
859,778.6005157371515
860,778.1661061546885
861,777.7342351643377
862,777.305085890254
863,776.8788346648361
864,776.4556501721942
865,776.0356925960355
866,775.6191127873506
867,775.2060514599217
868,774.7966384159471
869,774.3909918016435
870,773.9892173948923
871,773.5914079339785
872,773.1976425060536
873,772.8079860223407
874,772.4224888110505
875,772.0411863569014
876,771.664099208433
877,771.2912330637635
878,770.9225790364902
879,770.5581140993413
880,770.1978017040947
881,769.8415925784625
882,769.4894256991897
883,769.1412294346399
884,768.7969228427629
885,768.4564171028137
886,768.1196170496113
887,767.7864227670998
888,767.4567311866122
889,767.1304376292132
890,766.807437234029
891,766.487626225274
892,766.1709029878948
893,765.8571689436012
894,765.5463292400989
895,765.2382932775424
896,764.9329750947051
897,764.6302936303575
898,764.330172872053
899,764.0325419080012
900,763.7373349038035
901,763.4444910264508
902,763.1539543290859
903,762.8656735970844
904,762.5796021480803
905,762.2956975790862
906,762.0139214609924
907,761.7342389915535
908,761.4566186281614
909,761.1810317255586
910,760.907452198844
911,760.6358562223164
912,760.3662219665288
913,760.0985293745583
914,759.8327599846072
915,759.5688968156174
916,759.3069243391703
917,759.0468285585321
