frame_number,force
0,562.1542900000206
1,562.0247144600947
2,561.9001569691392
3,561.7850070486516
4,561.682506865172
5,561.5944229148591
6,561.5209447701104
7,561.4608071953018
8,561.4116096999444
9,561.3703006519065
10,561.3337829106163
11,561.2995694516874
12,561.2663774580988
13,561.2345242761428
14,561.2060058694717
15,561.1842084194562
16,561.1733080476537
17,561.1775025009083
18,561.2002432763277
19,561.2436016745952
20,561.3078547876592
21,561.3913371869681
22,561.4905540004612
23,561.6004939141374
24,561.7150485226713
25,561.8274539000471
26,561.9307048328224
27,562.0179291777641
28,562.0827430073616
29,562.1196343222307
30,562.1244255604984
31,562.0948214126047
32,562.0309660725943
33,561.9358566569206
34,561.8154408274634
35,561.6782890410586
36,561.5348414093197
37,561.3963257916005
38,561.2735019386928
39,561.1754213916307
40,561.108406972132
41,561.0754238367257
42,561.0759293450611
43,561.1061853453762
44,561.1599369508898
45,561.2293262088624
46,561.305909302942
47,561.3816589344374
48,561.449839975311
49,561.5056478728995
50,561.5465175339799
51,561.5720623894747
52,561.5836769701103
53,561.5839039381631
54,561.5757131919905
55,561.5618574690135
56,561.5444356998216
57,561.5247092177511
58,561.5031217224767
59,561.4794274617295
60,561.4528459861402
61,561.4222108294292
62,561.3861314417084
63,561.3432114855308
64,561.2923442396813
65,561.2330551182645
66,561.1658217760573
67,561.0922925657186
68,561.0153337497561
69,560.9388578870983
70,560.8674291911641
71,560.805703521402
72,560.757811404534
73,560.7268032129713
74,560.7142477246347
75,560.720033268379
76,560.7423836167379
77,560.7780706060024
78,560.8227804940271
79,560.8715769145995
80,560.9194031914373
81,560.9615714237011
82,560.9941835451459
83,561.0144251492528
84,561.0206854877068
85,561.012494971406
86,560.9903171436523
87,560.9552610534159
88,560.908783121854
89,560.8524292086574
90,560.7876419414532
91,560.7156465839774
92,560.6374332641373
93,560.5538486392961
94,560.4657812732436
95,560.3743924768769
96,560.2813318994407
97,560.1888847872586
98,560.10001628318
99,560.0183023528969
100,559.9477564742228
101,559.8925617152279
102,559.8567047487212
103,559.8435106852032
104,559.8551135546379
105,559.8919495983965
106,559.9523935329039
107,560.032648903892
108,560.1269562206631
109,560.2281171045255
110,560.3282680794129
111,560.4197849296571
112,560.496168396239
113,560.5527650570072
114,560.5872117701272
115,560.5995425032429
116,560.5919533291461
117,560.568289171344
118,560.5333853360232
119,560.4924285901266
120,560.4504645337198
121,560.4120907051416
122,560.3812960053066
123,560.3613764624922
124,560.3548706784015
125,560.3634864797017
126,560.3880096953008
127,560.4281940403465
128,560.4826424225923
129,560.5487130105281
130,560.6225050413484
131,560.698983320124
132,560.7722855685399
133,560.8362246100725
134,560.8849463207678
135,560.9136495149996
136,560.91924201416
137,560.9008059143891
138,560.8597675641048
139,560.799715983175
140,560.7258882340058
141,560.6444207086099
142,560.561520647931
143,560.4827245902615
144,560.4123781783377
145,560.3534041040757
146,560.3073435601154
147,560.2745917058749
148,560.2547199702617
149,560.2467875404521
150,560.2495822397267
151,560.2617856896668
152,560.2821052684187
153,560.3094276323819
154,560.3430178527981
155,560.382733170304
156,560.4291746110409
157,560.4836971466376
158,560.5482459158653
159,560.625045333169
160,560.716197541833
161,560.8232463266589
162,560.9467593140025
163,561.0859848780321
164,561.2386383167635
165,561.4008561790496
166,561.567335671409
167,561.7316577481943
168,561.8867740677091
169,562.0256111113509
170,562.1417159170527
171,562.2298533204377
172,562.2864724824934
173,562.309988797609
174,562.300865826104
175,562.2615124602027
176,562.1960238135301
177,562.1098023144888
178,562.0091082430625
179,561.9005939398427
180,561.7908595364072
181,561.686043168561
182,561.5914532371373
183,561.5112700117455
184,561.4483583653164
185,561.4042136392264
186,561.379021993288
187,561.3717933344607
188,561.3805333088379
189,561.4024417511158
190,561.4341360732901
191,561.4718950476317
192,561.5119093559882
193,561.5505185611881
194,561.5844179665036
195,561.6108380195402
196,561.627720103645
197,561.6339084671718
198,561.6293426945352
199,561.6151984214147
200,561.5939166237638
201,561.5690825521391
202,561.5451456674945
203,561.5270037946468
204,561.5195084047825
205,561.5269738811386
206,561.552773240309
207,561.599068404565
208,561.6666708686133
209,561.7549885310436
210,561.8620077533849
211,561.9842858347262
212,562.116970498007
213,562.2538951551625
214,562.3878021698325
215,562.5107210641969
216,562.6144939061695
217,562.6914155155298
218,562.7349438360038
219,562.7404191091766
220,562.7056970858692
221,562.6315728155139
222,562.5218856038904
223,562.3832582306918
224,562.2245028416145
225,562.0557901593334
226,561.8877140724884
227,561.7303878446363
228,561.5926836745942
229,561.4816821451442
230,561.4023479465657
231,561.3574108301907
232,561.3474103527724
233,561.3708502753673
234,561.4244041423713
235,561.5031325132918
236,561.6007123975235
237,561.7097125561324
238,561.821954099331
239,561.9289792639097
240,562.0226238591874
241,562.0956552345391
242,562.1424055557228
243,562.1593158985933
244,562.1453191014855
245,562.1020177604368
246,562.0336386953182
247,561.9467571344196
248,561.8497914060403
249,561.7522899109199
250,561.6640713423911
251,561.5943154519945
252,561.5507062368882
253,561.5387021776891
254,561.5609847083188
255,561.6171402195934
256,561.7036367771364
257,561.8141267363712
258,561.9400464463473
259,562.0714314646938
260,562.197841395603
261,562.3092887828435
262,562.3970827007929
263,562.4545226545208
264,562.4774031228898
265,562.4643063963551
266,562.4166707131295
267,562.3386271717279
268,562.2366075150411
269,562.118736919136
270,561.9940453014656
271,561.8715660032154
272,561.7594370156144
273,561.6641463696461
274,561.5900387678972
275,561.5391311604541
276,561.5112125797201
277,561.5041646315922
278,561.5144324681823
279,561.5375744099874
280,561.5688079088208
281,561.6034680018779
282,561.637321582797
283,561.6667247884095
284,561.6886412551207
285,561.7005490071381
286,561.7002766141
287,561.685835550612
288,561.6553269122179
289,561.6069694580882
290,561.5392424043393
291,561.4511026723009
292,561.3422331737568
293,561.2132885481791
294,561.066114818908
295,560.9039215592253
296,560.7313703966304
297,560.5545221633694
298,560.380585129886
299,560.2174424600718
300,560.0729947547355
301,559.9544087904054
302,559.8673947581149
303,559.8156297141153
304,559.8004096664001
305,559.8205657048192
306,559.8726393540235
307,559.9512850947274
308,560.049847642256
309,560.161042578789
310,560.2776566538436
311,560.393185003596
312,560.5023347773495
313,560.6013478684652
314,560.6881315121143
315,560.7622208091611
316,560.8246085723176
317,560.8774638421723
318,560.9237475514348
319,560.9667452047771
320,561.009564935835
321,561.0546686809638
322,561.1035004696964
323,561.156257806184
324,561.2118344222871
325,561.267949212103
326,561.3214602979982
327,561.3688380215675
328,561.4067393062915
329,561.4325998725666
330,561.4451482875597
331,561.4447510258592
332,561.4335264623224
333,561.4152137869332
334,561.394828505735
335,561.3781600302522
336,561.3711691216123
337,561.3793366177
338,561.4070141314166
339,561.4568417028628
340,561.5293195700102
341,561.6226234729413
342,561.7327136360699
343,561.8537217145787
344,561.9785465033845
345,562.0995703937944
346,562.2094135240345
347,562.301648677455
348,562.3714009791499
349,562.415765124315
350,562.4340004898913
351,562.42750545358
352,562.3996066665602
353,562.3552062504948
354,562.3003117447009
355,562.241463579313
356,562.1850999845137
357,562.1369378708225
358,562.1014557196052
359,562.0815331160794
360,562.0782633888762
361,562.0909364976412
362,562.1171866927878
363,562.1533008360097
364,562.1946782408522
365,562.2364134887622
366,562.2739424244536
367,562.3036650804527
368,562.3234514240157
369,562.3329480433957
370,562.33363311294
371,562.3286043544547
372,562.3221160777385
373,562.3189057376467
374,562.3233829857375
375,562.3387989895199
376,562.3665472054142
377,562.4057393695192
378,562.4531488549054
379,562.5035392921835
380,562.5503207713932
381,562.5864135020353
382,562.605164592092
383,562.6011665146916
384,562.5708616140172
385,562.5128748558398
386,562.4280801908109
387,562.3194503189592
388,562.1917515207656
389,562.0511332169766
390,561.9046401571591
391,561.759652656779
392,561.6232539501876
393,561.5015514313681
394,561.3990318113377
395,561.3180741895762
396,561.2587438010861
397,561.2189273990415
398,561.1947711113309
399,561.1812985778405
400,561.1730685625398
401,561.1647763763191
402,561.151766446562
403,561.130454820304
404,561.0986495720512
405,561.0557330795486
406,561.0026673673382
407,560.9418117919342
408,560.8765806260377
409,560.8109899377581
410,560.7491468749619
411,560.6947356281115
412,560.6505554716276
413,560.6181584300796
414,560.5976165978203
415,560.5874307924142
416,560.5845843180413
417,560.5847515793242
418,560.5826743841059
419,560.5726981297508
420,560.5494224479758
421,560.508391156913
422,560.4467324492729
423,560.3636556760456
424,560.2607183294255
425,560.1418015385677
426,560.012771332916
427,559.880852211271
428,559.7537958478799
429,559.6389778435521
430,559.5425779110802
431,559.4689772668173
432,559.4204456861477
433,559.3971194657743
434,559.3972209289923
435,559.4174461043074
436,559.4534411853707
437,559.5002965839469
438,559.553006990927
439,559.6068657758626
440,559.6577730178864
441,559.7024437820174
442,559.7385170090809
443,559.764582376864
444,559.7801487000623
445,559.7855680434551
446,559.781920457408
447,559.7708735532444
448,559.7545503391035
449,559.7354376934582
450,559.716334424801
451,559.700295294721
452,559.6905123143125
453,559.6901052901792
454,559.7018510094489
455,559.7279194721613
456,559.7696766591101
457,559.8275719031759
458,559.9010945884686
459,559.9887830711887
460,560.0882869600321
461,560.196493516602
462,560.3097165127092
463,560.4239262739263
464,560.5349932164116
465,560.6389237469123
466,560.7320753121461
467,560.8113478482599
468,560.8743673844543
469,560.9196871957473
470,560.9470081570043
471,560.9573740704
472,560.9532717909358
473,560.9385784747093
474,560.9183259589463
475,560.8982736878511
476,560.8843080288855
477,560.8817343199042
478,560.8945829407857
479,560.9250703141006
480,560.9733173062979
481,561.0373565207681
482,561.1134035480959
483,561.1963437396774
484,561.2803760005316
485,561.3597356026926
486,561.4293889753334
487,561.4855769896046
488,561.5261078617152
489,561.550369510661
490,561.5591061321333
491,561.5540434484917
492,561.5374482447213
493,561.5116930328845
494,561.4788829959899
495,561.4405936992141
496,561.3977600282644
497,561.3507402603715
498,561.2995478714569
499,561.2442042675004
500,561.1851344756049
501,561.1235129651997
502,561.0614658393567
503,561.0020553705517
504,560.9490240752061
505,560.9063441713474
506,560.8776702614961
507,560.8658105813813
508,560.8723229746166
509,560.8973164472961
510,560.9394988902608
511,560.9964584703115
512,561.0651131659263
513,561.1422298375807
514,561.2249140912415
515,561.3109990904255
516,561.3992953654948
517,561.4896876802621
518,561.5830751288257
519,561.681153387445
520,561.7860441166996
521,561.8997946213099
522,562.0238026943163
523,562.1582570493835
524,562.3017037665395
525,562.4508397805151
526,562.6005975481129
527,562.7445327259996
528,562.8754681915826
529,562.9862896610305
530,563.070749406375
531,563.1241416619013
532,563.1437667220536
533,563.1291645457492
534,563.082136005103
535,563.0065744584617
536,562.9081217682477
537,562.7936650877348
538,562.6707129506127
539,562.5467204523005
540,562.4284536404808
541,562.3214781510212
542,562.2298262614887
543,562.1558554197867
544,562.1002774325298
545,562.0623134946896
546,562.0399128628819
547,562.0299711361748
548,562.0285100127226
549,562.030829336613
550,562.0316921731585
551,562.0256259317933
552,562.0073947809054
553,561.9726234572182
554,561.9184651381775
555,561.8441545596145
556,561.7513002440294
557,561.643833209689
558,561.5276056272278
559,561.4096968251877
560,561.2975342052841
561,561.1979746449691
562,561.1165074719053
563,561.0567143385515
564,561.0200495289399
565,561.0059114601868
566,561.0119024645288
567,561.034151865709
568,561.0676164063913
569,561.1063443306049
570,561.1437450624996
571,561.1729193693415
572,561.1870862941628
573,561.1801131951861
574,561.1471240128842
575,561.0851289373675
576,560.993583796832
577,560.8747589191111
578,560.7337995351406
579,560.5784096222471
580,560.4181729995399
581,560.2636022463947
582,560.1250516572151
583,560.011644235152
584,559.9303541283151
585,559.8853600432706
586,559.8777419905263
587,559.9055346352046
588,559.9640896572706
589,560.0466619781016
590,560.1451321657285
591,560.2507943865962
592,560.3551532713574
593,560.4506766465199
594,560.5314482697407
595,560.5936579579042
596,560.635860830852
597,560.6589501753722
598,560.6658363077879
599,560.6608936113932
600,560.6492868266071
601,560.6362873799676
602,560.626658631668
603,560.6241609935873
604,560.6312135087582
605,560.6487324534179
606,560.6761428648214
607,560.7115382040773
608,560.7519576073064
609,560.7937533936769
610,560.8330205995596
611,560.8660489909182
612,560.889743512225
613,560.9019608461587
614,560.9017368239649
615,560.8894096330664
616,560.866647838069
617,560.8363750702774
618,560.8025757125711
619,560.7699810509636
620,560.7436570056234
621,560.7285266960134
622,560.7288666206989
623,560.7478234240941
624,560.7870111237476
625,560.8462599112288
626,560.9235812164852
627,561.0153738993831
628,561.1168333823002
629,561.2224767453356
630,561.326690076064
631,561.4242294537994
632,561.5106318649566
633,561.5825026890137
634,561.6376565616005
635,561.6751123981157
636,561.6949735604595
637,561.6982448699035
638,561.6866396235976
639,561.6624087303255
640,561.6281919759016
641,561.5868748248823
642,561.541445710048
643,561.494867274467
644,561.4499719292438
645,561.4093681219075
646,561.3753276417904
647,561.3496399395672
648,561.3334584216376
649,561.3271928073117
650,561.3304979845208
651,561.3423803280316
652,561.361408401613
653,561.3859901281285
654,561.4146654052702
655,561.4463587836774
656,561.4805363749208
657,561.517213770638
658,561.5567775332582
659,561.5996246766266
660,561.6456872708501
661,561.693964143588
662,561.7421984932779
663,561.7868123664404
664,561.823150488024
665,561.8460110679083
666,561.850362452411
667,561.8320890299287
668,561.7886098672001
669,561.7192687874259
670,561.6254654649895
671,561.5105468140177
672,561.3795045844088
673,561.2385453644805
674,561.0946139024342
675,560.9549404122675
676,560.8266405795285
677,560.7163511471974
678,560.6298688425159
679,560.5717767844791
680,560.5450647611259
681,560.5507668551002
682,560.5876644956338
683,560.6521377628051
684,560.7382633000572
685,560.8382186931872
686,560.9429665520249
687,561.0431092289895
688,561.1297774107037
689,561.1954443084686
690,561.2346022240755
691,561.2442628051691
692,561.2242425406348
693,561.1771950900106
694,561.108373739156
695,561.025148029812
696,560.9363392166138
697,560.8514636629353
698,560.7799741752298
699,560.7305657660892
700,560.7105755878769
701,560.7254798413238
702,560.7784902070798
703,560.8702732476293
704,560.998835732096
705,561.1596147332546
706,561.3457785872022
707,561.5487034150535
708,561.7585673357105
709,561.965005193042
710,562.1577742818016
711,562.3273885826522
712,562.4656894254896
713,562.5663303135153
714,562.6251527814833
715,562.6404190287465
716,562.6128597544164
717,562.5455094370722
718,562.4433405930579
719,562.3127568484122
720,562.1610384797178
721,561.9958398903981
722,561.8248112599479
723,561.6553582576358
724,561.4944849396471
725,561.3486229835851
726,561.2233631077415
727,561.1230692588074
728,561.0504390897427
729,561.006128713374
730,560.9885584410492
731,560.9939721589461
732,561.0167741905061
733,561.0501349472125
734,561.0868214116282
735,561.120148495379
736,561.1448871010288
737,561.1579529278354
738,561.1587474892292
739,561.1490970640888
740,561.1328052801271
741,561.1148942343099
742,561.1006611097923
743,561.0947155244965
744,561.1001698345144
745,561.1181184701093
746,561.1474723846627
747,561.1851410184146
748,561.2265050248545
749,561.2660972747801
750,561.298387324227
751,561.3185463391616
752,561.3230769356563
753,561.3102279052711
754,561.2801569298621
755,561.234842981239
756,561.1777825522892
757,561.1135250227209
758,561.0471115866115
759,560.9834871433583
760,560.926956715379
761,560.8807514915412
762,560.8467549478163
763,560.8254188646109
764,560.8158695588463
765,560.8161712949011
766,560.8236907459457
767,560.83549629237
768,560.8487214371949
769,560.8608276907388
770,560.8697330159509
771,560.873822861806
772,560.8719025375152
773,560.8631558606237
774,560.8471502515214
775,560.8238992736636
776,560.7939741158631
777,560.758636782028
778,560.7199438713169
779,560.6807544096802
780,560.6445824047399
781,560.615263020541
782,560.596444583619
783,560.5909713816741
784,560.6002660931423
785,560.6238335229062
786,560.6589885055379
787,560.7008775253482
788,560.742824410957
789,560.7769822092324
790,560.7952215669021
791,560.790146856165
792,560.7561094377726
793,560.6900730223653
794,560.5921822277754
795,560.4659172084758
796,560.3177963269985
797,560.1566844976444
798,559.9928323011586
799,559.836796095899
800,559.6983827225552
801,559.5857300344842
802,559.5045847809085
803,559.4578012096695
804,559.4450836412469
805,559.4630197709888
806,559.5054519696012
807,559.5641857249341
808,559.6299592810991
809,559.6935365089336
810,559.7467628445268
811,559.7834481685577
812,559.7999916993725
813,559.7957078180065
814,559.7728340408044
815,559.7362188698088
816,559.6927120266935
817,559.6503102470392
818,559.6171445788793
819,559.6004276173684
820,559.6055023933036
821,559.6351373592274
822,559.6891871890472
823,559.7646862809338
824,559.8563666044896
825,559.9575050072003
826,560.06093083347
827,560.1600009119749
828,560.2493954858074
829,560.3256702375163
830,560.3875537001564
831,560.4359850668071
832,560.4738792796929
833,560.5056226475773
834,560.5363487330718
835,560.5711028267964
836,560.6140464271206
837,560.6678518897413
838,560.7333828683762
839,560.8096744824045
840,560.8941602147837
841,560.9830658657016
842,561.0719003721828
843,561.1559935614747
844,561.2310382761328
845,561.2935849701007
846,561.3414232297204
847,561.3737850692826
848,561.3913328098547
849,561.3959419399996
850,561.3903309923988
851,561.3776121195607
852,561.3608432989913
853,561.3426607102004
854,561.3250544115575
855,561.3093196754855
856,561.2961740169275
857,561.2859883184315
858,561.2790561051122
859,561.2758267863329
860,561.2770527708764
861,561.2838316255657
862,561.2975428068796
863,561.3196786473382
864,561.351569223376
865,561.3940199468768
866,561.4469177865643
867,561.5088958853089
868,561.5771526852961
869,561.6474918602304
870,561.7145980375624
871,561.772515181521
872,561.8152642085844
873,561.8375234198304
874,561.8352938955866
875,561.8064773035153
876,561.7512992876759
877,561.6725135022623
878,561.5753276088005
879,561.4670202173486
880,561.3562736456855
881,561.2523158883464
882,561.1640149423885
883,561.0990719575115
884,561.0634118909786
885,561.0607956543678
886,561.0926186736991
887,561.157852520297
888,561.2531244163644
889,561.3729682957326
890,561.5102796949
891,561.6569671770234
892,561.8047440059815
893,561.9459654872671
894,562.0743959716798
895,562.1857903152387
896,562.2782020177023
897,562.3519787139236
898,562.4094599249047
899,562.4544352623726
900,562.4914443177048
901,562.5250072707609
902,562.5588806413617
903,562.5954372530576
904,562.6352601205228
905,562.6770085353913
906,562.7175711288843
907,562.7524807535805
908,562.7765351520762
909,562.7845409025518
910,562.7720726023852
911,562.7361252998732
912,562.6755548009768
913,562.59124578037
914,562.4859928280637
915,562.364107962182
916,562.230795857748
917,562.091382575464
