frame_number,force
0,872.9907230083194
1,872.9846692169682
2,872.9789409124816
3,872.9738610584136
4,872.9697475990513
5,872.9669110180809
6,872.9656519788881
7,872.9662590726961
8,872.9690066988801
9,872.974153098665
10,872.9819385594549
11,872.9925838029311
12,873.0062885661404
13,873.0232303812976
14,873.043563557479
15,873.0674183662322
16,873.0949004331256
17,873.1260903374427
18,873.1610434218811
19,873.1997898131607
20,873.2423346529849
21,873.2886585368534
22,873.3387181557525
23,873.3924471328586
24,873.4497570443222
25,873.5105386104142
26,873.5746630409888
27,873.6419835172095
28,873.7123367896675
29,873.7855448717767
30,873.8614168070376
31,873.9397504893558
32,874.0203345167074
33,874.10295005976
34,874.1873727283715
35,874.2733744201829
36,874.3607251369862
37,874.4491947562852
38,874.5385547472556
39,874.628579821795
40,874.719049512499
41,874.8097496704819
42,874.900473877366
43,874.9910247674759
44,875.0812152578061
45,875.170869684078
46,875.2598248409506
47,875.3479309239451
48,875.4350523708806
49,875.521068601658
50,875.6058746562279
51,875.6893817311254
52,875.7715176153885
53,875.8522270274107
54,875.931471855156
55,876.0092313024503
56,876.0855019432867
57,876.1602976848162
58,876.2336496390026
59,876.3056059033943
60,876.3762312527487
61,876.4456067441878
62,876.5138292380174
63,876.581010834157
64,876.6472782216861
65,876.7127719379265
66,876.7776455343261
67,876.8420646484116
68,876.9062059830194
69,876.9702561953824
70,877.0344106999532
71,877.0988723907936
72,877.1638502920249
73,877.2295581476741
74,877.296212964701
75,877.3640335249422
76,877.4332388829117
77,877.504046866393
78,877.576672595669
79,877.6513270360887
80,877.7282155981325
81,877.8075367986252
82,877.8894809952612
83,877.9742292040115
84,878.0619520060804
85,878.1528085488189
86,878.2469456436414
87,878.3444969632061
88,878.445582339428
89,878.5503071630682
90,878.6587618848482
91,878.7710216175562
92,878.887145838453
93,879.0071781913406
94,879.1311463877103
95,879.2590622060304
96,879.3909215869289
97,879.5267048197455
98,879.6663768133845
99,879.8098874424941
100,879.9571719593212
101,880.108151462177
102,880.2627334127166
103,880.4208121953014
104,880.5822697120647
105,880.7469760071243
106,880.9147899132248
107,881.0855597141352
108,881.2591238162483
109,881.43531142292
110,881.6139432053203
111,881.7948319640933
112,881.977783276833
113,882.162596127084
114,882.3490635113554
115,882.536973021865
116,882.7261074044687
117,882.9162450928055
118,883.1071607203546
119,883.2986256117332
120,883.4904082537965
121,883.6822747467133
122,883.873989235575
123,884.0653143241203
124,884.2560114733931
125,884.4458413892024
126,884.6345644029101
127,884.8219408503335
128,885.0077314535573
129,885.1916977103518
130,885.3736022957193
131,885.5532094795043
132,885.7302855624679
133,885.9045993306987
134,886.0759225255225
135,886.2440303242537
136,886.4087018264878
137,886.5697205405588
138,886.7268748646745
139,886.8799585571699
140,887.028771190775
141,887.1731185870763
142,887.3128132291167
143,887.4476746515095
144,887.5775298078079
145,887.7022134144082
146,887.8215682699708
147,887.9354455501133
148,888.0437050788682
149,888.146215580291
150,888.2428549148962
151,888.3335103058128
152,888.4180785585156
153,888.4964662760029
154,888.5685900692463
155,888.6343767614756
156,888.6937635844586
157,888.7466983647073
158,888.7931396969927
159,888.8330571019064
160,888.866431163827
161,888.8932536454688
162,888.9135275750027
163,888.9272673016428
164,888.9344985158469
165,888.935258230945
166,888.9295947238492
167,888.9175674331939
168,888.8992468136713
169,888.8747141458198
170,888.8440613014176
171,888.8073904658601
172,888.7648138200309
173,888.7164531849737
174,888.6624396329847
175,888.6029130684764
176,888.5380217812294
177,888.467921974114
178,888.3927772676636
179,888.3127581852588
180,888.2280416248283
181,888.13881032533
182,888.0452523380236
183,887.9475605129828
184,887.8459320099961
185,887.7405678401661
186,887.6316724410987
187,887.5194532856775
188,887.404120522636
189,887.2858866462574
190,887.1649661919944
191,887.0415754543204
192,886.9159322228174
193,886.7882555324999
194,886.6587654245079
195,886.5276827131745
196,886.3952287548965
197,886.2616252135947
198,886.127093817421
199,885.9918561021091
200,885.8561331377523
201,885.7201452373356
202,885.5841116465798
203,885.4482502154258
204,885.3127770518936
205,885.1779061594583
206,885.0438490599391
207,884.9108144053159
208,884.7790075836045
209,884.648630325577
210,884.5198803202227
211,884.3929508467047
212,884.268030429019
213,884.1453025175014
214,884.0249451996555
215,883.9071309415009
216,883.7920263592379
217,883.6797920194065
218,883.5705822643375
219,883.4645450588882
220,883.3618218538865
221,883.2625474606763
222,883.1668499294202
223,883.0748504220206
224,882.9866630695575
225,882.9023948044085
226,882.8221451584825
227,882.7460060209208
228,882.6740613511897
229,882.6063868467685
230,882.5430495681366
231,882.4841075264407
232,882.4296092405152
233,882.3795932703429
234,882.3340877343704
235,882.2931098188647
236,882.2566652888453
237,882.2247480117618
238,882.1973395062894
239,882.1744085287959
240,882.1559107090188
241,882.1417882444954
242,882.131969660854
243,882.1263696429849
244,882.1248889408839
245,882.1274143534479
246,882.1338187931353
247,882.1439614338176
248,882.1576879434575
249,882.1748308027178
250,882.1952097101434
251,882.2186320737821
252,882.2448935879642
253,882.2737788929154
254,882.305062313998
255,882.3385086760671
256,882.3738741865399
257,882.4109073792076
258,882.4493501102402
259,882.488938597689
260,882.5294044954846
261,882.5704759927379
262,882.6118789296247
263,882.6533379219386
264,882.6945774869221
265,882.7353231631398
266,882.7753026170888
267,882.8142467289941
268,882.8518906501056
269,882.8879748242525
270,882.9222459674567
271,882.9544580005852
272,882.9843729311783
273,883.0117616817603
274,883.0364048629926
275,883.0580934906643
276,883.0766296455668
277,883.0918270747724
278,883.1035117317527
279,883.1115222513331
280,883.1157103542648
281,883.1159411759216
282,883.112093514607
283,883.104059996962
284,883.0917471602434
285,883.0750754528132
286,883.0539791546491
287,883.0284062198024
288,882.9983180433693
289,882.9636891564949
290,882.9245068536078
291,882.8807707568023
292,882.8324923235014
293,882.7796943048769
294,882.7224101634333
295,882.660683458861
296,882.5945672117788
297,882.5241232545736
298,882.4494215767743
299,882.37053967014
300,882.2875618772491
301,882.2005787473124
302,882.1096864033865
303,882.0149859248808
304,881.9165827478865
305,881.8145860843346
306,881.7091083604815
307,881.6002646755862
308,881.4881722817421
309,881.3729500851637
310,881.2547181684484
311,881.1335973330995
312,881.0097086617191
313,880.8831730992812
314,880.7541110527251
315,880.6226420081574
316,880.4888841654625
317,880.3529540909277
318,880.2149663892015
319,880.0750333963713
320,879.933264896188
321,879.7897678614222
322,879.6446462217681
323,879.4980006584109
324,879.3499284234194
325,879.2005231801214
326,879.0498748594108
327,878.898069526958
328,878.7451892573293
329,878.591312012577
330,878.4365115245049
331,878.2808571809564
332,878.1244139165424
333,877.9672421074155
334,877.8093974690122
335,877.6509309558882
336,877.4918886634952
337,877.3323117321252
338,877.1722362531789
339,877.0116931778734
340,876.8507082287967
341,876.6893018153397
342,876.5274889548948
343,876.365279202554
344,876.2026765926987
345,876.0396795962356
346,875.8762810973674
347,875.7124683941411
348,875.548223227994
349,875.3835218488481
350,875.218335123308
351,875.05262869404
352,874.8863631986353
353,874.7194945558676
354,874.5519743255886
355,874.3837501453761
356,874.2147662431049
357,874.0449640208425
358,873.8742827025471
359,873.7026600359314
360,873.5300330373904
361,873.3563387681932
362,873.1815151302835
363,873.0055016708308
364,872.8282403858333
365,872.6496765144732
366,872.4697593174327
367,872.2884428336708
368,872.1056866107597
369,871.9214564036693
370,871.7357248364807
371,871.5484720219451
372,871.3596861352977
373,871.1693639401526
374,870.9775112643604
375,870.7841434225096
376,870.5892855807424
377,870.3929730600526
378,870.195251576321
379,869.9961774180315
380,869.7958175647677
381,869.5942497505282
382,869.3915624755757
383,869.1878549694087
384,868.9832371062863
385,868.7778292741541
386,868.5717621979472
387,868.3651767187888
388,868.1582235312737
389,867.9510628818832
390,867.7438642325866
391,867.5368058943994
392,867.3300746354926
393,867.1238652674568
394,866.9183802123299
395,866.7138290526194
396,866.510428066485
397,866.3083997497299
398,866.1079723250843
399,865.9093792377519
400,865.7128586345688
401,865.5186528224282
402,865.3270077001036
403,865.1381721567384
404,864.9523974303884
405,864.7699364210706
406,864.5910429544872
407,864.4159709946088
408,864.2449738054611
409,864.078303064796
410,863.9162079345998
411,863.7589340950069
412,863.6067227487888
413,863.4598096036339
414,863.3184238397038
415,863.1827870706288
416,863.053112306714
417,862.9296029292648
418,862.8124516847485
419,862.7018397073916
420,862.5979355787036
421,862.5008944318055
422,862.4108571071981
423,862.3279493653174
424,862.2522811606111
425,862.183945982287
426,862.123020268214
427,862.0695628999895
428,862.023614787905
429,861.9851985539478
430,861.9543183196458
431,861.9309596042103
432,861.9150893371708
433,861.9066559879562
434,861.9055898121767
435,861.9118032107748
436,861.9251911943516
437,861.9456319418429
438,861.9729874413996
439,862.007104202045
440,862.0478140266515
441,862.0949348388721
442,862.1482715582001
443,862.2076170182569
444,862.2727529240427
445,862.3434508443306
446,862.4194732352984
447,862.5005744908385
448,862.5865020143058
449,862.6769973060655
450,862.7717970608505
451,862.8706342685803
452,862.9732393125672
453,863.0793410602898
454,863.1886679434623
455,863.3009490249103
456,863.4159150493996
457,863.5332994745613
458,863.6528394771638
459,863.7742769294721
460,863.8973593401018
461,864.0218407534046
462,864.1474826012736
463,864.2740545015516
464,864.4013349975459
465,864.5291122328185
466,864.6571845542213
467,864.7853610347956
468,864.9134619076292
469,865.0413189025295
470,865.1687754792781
471,865.2956869538256
472,865.421920516519
473,865.5473551438387
474,865.6718814069704
475,865.7954011818597
476,865.9178272662789
477,866.0390829101211
478,866.1591012658049
479,866.2778247662922
480,866.3952044388966
481,866.5111991643454
482,866.6257748926691
483,866.7389038294883
484,866.8505636067138
485,866.9607364502504
486,867.0694083549915
487,867.1765682752992
488,867.2822073377114
489,867.3863180818983
490,867.48889373591
491,867.5899275322878
492,867.6894120722657
493,867.7873387457385
494,867.8836972145259
495,867.9784749652715
496,868.0716569360694
497,868.1632252185083
498,868.2531588353527
499,868.341433593699
500,868.4280220133958
501,868.512893330111
502,868.5960135713965
503,868.6773457024509
504,868.7568498364309
505,868.8344835031318
506,868.9102019702367
507,868.983958612437
508,869.0557053242213
509,869.1253929715016
510,869.1929718759512
511,869.2583923244505
512,869.3216050945884
513,869.382561986115
514,869.4412163480141
515,869.4975235915342
516,869.5514416805986
517,869.6029315919559
518,869.6519577377745
519,869.6984883433254
520,869.7424957726284
521,869.7839567959871
522,869.8228527950822
523,869.8591699033184
524,869.8928990810797
525,869.9240361272014
526,869.9525816289332
527,869.9785408526656
528,870.0019235770405
529,870.0227438697714
530,870.0410198102998
531,870.0567731620989
532,870.070029000165
533,870.080815300549
534,870.089162499662
535,870.0951030316338
536,870.0986708523926
537,870.0999009594195
538,870.0988289160096
539,870.0954903878973
540,870.0899206981708
541,870.0821544037384
542,870.0722248936921
543,870.0601640073718
544,870.046001668496
545,870.0297655318226
546,870.0114806404247
547,869.9911690943927
548,869.9688497346164
549,869.944537847025
550,869.9182448925295
551,869.8899782662908
552,869.859741087911
553,869.8275320225084
554,869.7933451318606
555,869.757169755081
556,869.7189904196092
557,869.6787867850027
558,869.63653362298
559,869.5922008366838
560,869.5457535208232
561,869.4971520634017
562,869.4463522894099
563,869.393305646693
564,869.3379594341623
565,869.2802570728694
566,869.2201384209221
567,869.1575401330437
568,869.0923960645881
569,869.0246377185524
570,868.9541947331954
571,868.8809954074434
572,868.8049672611842
573,868.7260376278595
574,868.6441342776628
575,868.5591860709411
576,868.471123642145
577,868.3798801142965
578,868.2853918428523
579,868.1875991870493
580,868.0864473066845
581,867.9818869822989
582,867.8738754563203
583,867.7623772919991
584,867.647365246263
585,867.5288211516105
586,867.4067368003532
587,867.2811148223676
588,867.1519695458674
589,867.0193278297072
590,866.8832298549254
591,866.7437298624076
592,866.6008968228717
593,866.4548150250539
594,866.3055845681591
595,866.153321745286
596,865.9981593056439
597,865.8402465849365
598,865.6797494950998
599,865.516850366508
600,865.3517476381029
601,865.1846553939224
602,865.0158027477894
603,864.8454330806463
604,864.6738031368234
605,864.5011819869468
606,864.3278498669703
607,864.1540969050733
608,863.9802217502296
609,863.8065301175692
610,863.633333266721
611,863.4609464309957
612,863.2896872172936
613,863.1198739976506
614,862.951824312361
615,862.7858533019355
616,862.6222721817024
617,862.4613867693937
618,862.3034960731728
619,862.1488909459366
620,861.9978528116251
621,861.8506524700812
622,861.7075489875645
623,861.5687886797016
624,861.4346041926225
625,861.3052136867932
626,861.1808201268456
627,861.0616106793868
628,860.9477562193044
629,860.8394109436175
630,860.7367120907647
631,860.6397797625966
632,860.5487168462902
633,860.4636090334749
634,860.3845249335674
635,860.3115162775972
636,860.2446182079851
637,860.1838496490793
638,860.129213753043
639,860.0806984161148
640,860.0382768612186
641,860.0019082838654
642,859.9715385587621
643,859.9471010045311
644,859.9285172038956
645,859.9156978767583
646,859.908543803211
647,859.9069467918389
648,859.9107906859601
649,859.9199523979825
650,859.9343029608683
651,859.9537085857588
652,859.9780317157248
653,860.0071320673497
654,860.0408676542411
655,860.0790957890952
656,860.121674062896
657,860.1684613005435
658,860.2193184913248
659,860.2741096904512
660,860.3327028853996
661,860.3949708190924
662,860.4607917614633
663,860.5300502213998
664,860.6026375918864
665,860.678452721955
666,860.7574024096983
667,860.8394018114587
668,860.924374763553
669,861.0122540141504
670,861.1029813639288
671,861.1965077152223
672,861.292793030674
673,861.3918062032027
674,861.4935248385331
675,861.5979349499819
676,861.7050305639754
677,861.8148132351191
678,861.9272914715898
679,862.042480074196
680,862.1603993946355
681,862.281074519998
682,862.4045343918748
683,862.5308108698779
684,862.6599377505529
685,862.7919497529026
686,862.9268814808546
687,863.0647663716533
688,863.2056356381732
689,863.3495172128462
690,863.4964347010374
691,863.6464063519991
692,863.799444055774
693,863.9555523747507
694,864.1147276193634
695,864.2769569787777
696,864.4422177186076
697,864.6104764578357
698,864.7816885359147
699,864.9557974789689
700,865.1327345715943
701,865.3124185383747
702,865.494755337496
703,865.6796380682258
704,865.8669469945032
705,866.0565496877596
706,866.2483012925885
707,866.4420449185282
708,866.6376121599794
709,866.8348237441958
710,867.0334903043689
711,867.233413271493
712,867.434385875792
713,867.6361942465702
714,867.8386185981005
715,868.0414344881451
716,868.2444141349607
717,868.4473277787154
718,868.6499450744113
719,868.8520365050836
720,869.0533748050641
721,869.2537363828978
722,869.452902732647
723,869.6506618215905
724,869.8468094415442
725,870.0411505097104
726,870.233500303527
727,870.423685613592
728,870.6115458000011
729,870.7969337398182
730,870.9797166558668
731,871.1597768189425
732,871.3370121171691
733,871.511336488034
734,871.6826802106631
735,871.8509900576793
736,872.0162293072746
737,872.1783776169966
738,872.33743076149
739,872.4934002373668
740,872.6463127398108
741,872.7962095174623
742,872.9431456140478
743,873.0871890061716
744,873.228419646169
745,873.366928417488
746,873.5028160087287
747,873.6361917120065
748,873.767172152026
749,873.8958799543453
750,874.0224423645171
751,874.1469898330607
752,874.2696545834701
753,874.3905691815231
754,874.5098651245614
755,874.6276714696164
756,874.7441135192475
757,874.8593115834556
758,874.9733798349185
759,875.0864252732963
760,875.1985468124129
761,875.3098345015237
762,875.4203688888097
763,875.530220532396
764,875.6394496618357
765,875.7481059909695
766,875.856228681159
767,875.9638464519426
768,876.0709778341073
769,876.1776315580196
770,876.2838070679073
771,876.3894951506994
772,876.4946786660217
773,876.5993333619351
774,876.7034287587766
775,876.8069290814574
776,876.9097942199517
777,877.0119806995351
778,877.1134426463282
779,877.2141327383007
780,877.3140031354225
781,877.4130063845048
782,877.5110962949656
783,877.6082287819478
784,877.7043626731129
785,877.7994604751434
786,877.8934890958187
787,877.9864205174846
788,878.0782324175049
789,878.1689087307655
790,878.2584401488997
791,878.3468245509729
792,878.4340673609627
793,878.520181828608
794,878.6051892320763
795,878.6891190027858
796,878.7720087737182
797,878.8539043527
798,878.9348596223143
799,879.0149363690873
800,879.0942040463779
801,879.1727394775268
802,879.250626507674
803,879.3279556135851
804,879.404823480401
805,879.4813325525788
806,879.5575905640504
807,879.6337100505012
808,879.7098078450499
809,879.7860045574944
810,879.862424036573
811,879.939192814334
812,880.0164395317153
813,880.0942943445966
814,880.1728883095568
815,880.2523527481303
816,880.3328185877706
817,880.4144156776159
818,880.4972720778725
819,880.5815133230985
820,880.6672616616012
821,880.7546352749313
822,880.843747482145
823,880.9347059326315
824,881.0276117896065
825,881.1225589053141
826,881.21963298957
827,881.3189107753286
828,881.420459187112
829,881.5243345189924
830,881.6305816281524
831,881.7392331488145
832,881.850308730717
833,881.9638143066747
834,882.0797413944532
835,882.198066438313
836,882.3187501952199
837,882.4417371707073
838,882.5669551102873
839,882.6943145537168
840,882.8237084607595
841,882.9550119182736
842,883.0880819395911
843,883.2227573678973
844,883.3588588951767
845,883.496189207046
846,883.6345332614709
847,883.7736587061721
848,883.9133164361633
849,884.0532412901482
850,884.1931528825635
851,884.3327565664133
852,884.4717445204377
853,884.609796952775
854,884.7465834121849
855,884.8817641968101
856,885.0149918491909
857,885.1459127250681
858,885.2741686227961
859,885.3993984601044
860,885.5212399853812
861,885.6393315112526
862,885.7533136586532
863,885.8628310997748
864,885.9675342884378
865,886.0670811664855
866,886.161138834673
867,886.2493851764838
868,886.3315104238487
869,886.4072186550493
870,886.4762292170223
871,886.5382780663984
872,886.5931190252894
873,886.6405249485267
874,886.6802887987345
875,886.7122246245237
876,886.7361684355635
877,886.7519789667382
878,886.759538322562
879,886.7587524927889
880,886.7495517307784
881,886.7318907875944
882,886.7057489966977
883,886.6711302060883
884,886.6280625566632
885,886.5765981071936
886,886.5168123073051
887,886.4488033202833
888,886.3726911982058
889,886.2886169136324
890,886.1967412551414
891,886.0972435980312
892,885.9903205656982
893,885.8761846004169
894,885.7550624637304
895,885.627193686502
896,885.492828987576
897,885.3522286786076
898,885.2056610713759
899,885.0534009029191
900,884.895727792893
901,884.7329247460442
902,884.565276710161
903,884.3930691967146
904,884.2165869689585
905,884.0361128015386
906,883.8519263164204
907,883.6643029009991
908,883.4735127146336
909,883.2798197894318
910,883.0834812303493
911,882.8847465188783
912,882.6838569238978
913,882.4810450228375
914,882.2765343361219
915,882.0705390772096
916,881.8632640187645
917,881.6549044729301
