frame_number,force
0,872.9907230059032
1,872.9846692145339
2,872.9789409100214
3,872.97386105592
4,872.9697475965177
5,872.9669110155015
6,872.965651976258
7,872.9662590700106
8,872.9690066961347
9,872.9741530958552
10,872.9819385565768
11,872.992583799982
12,873.0062885631179
13,873.0232303782005
14,873.0435635543071
15,873.0674183629852
16,873.0949004298037
17,873.1260903340465
18,873.1610434184119
19,873.1997898096204
20,873.2423346493763
21,873.2886585331795
22,873.3387181520166
23,873.3924471290633
24,873.4497570404699
25,873.510538606507
26,873.5746630370286
27,873.6419835131978
28,873.7123367856058
29,873.7855448676659
30,873.8614168028785
31,873.9397504851485
32,874.0203345124512
33,874.1029500554537
34,874.1873727240134
35,874.2733744157708
36,874.3607251325176
37,874.4491947517571
38,874.5385547426642
39,874.6285798171366
40,874.7190495077699
41,874.8097496656786
42,874.9004738724859
43,874.9910247625164
44,875.0812152527647
45,875.1708696789524
46,875.2598248357392
47,875.347930918647
48,875.4350523654966
49,875.521068596191
50,875.6058746506818
51,875.6893817255058
52,875.7715176097018
53,875.8522270216649
54,875.9314718493607
55,876.0092312966154
56,876.0855019374226
57,876.1602976789346
58,876.2336496331166
59,876.3056058975185
60,876.3762312468979
61,876.445606738377
62,876.513829232262
63,876.5810108284719
64,876.6472782160857
65,876.7127719324242
66,876.7776455289338
67,876.842064643141
68,876.9062059778814
69,876.9702561903869
70,877.0344106951098
71,877.0988723861108
72,877.163850287509
73,877.2295581433295
74,877.2962129605299
75,877.3640335209454
76,877.4332388790889
77,877.5040468627429
78,877.5766725921898
79,877.651327032777
80,877.7282155949837
81,877.8075367956329
82,877.8894809924168
83,877.9742292013038
84,878.0619520034973
85,878.1528085463468
86,878.2469456412649
87,878.3444969609089
88,878.4455823371939
89,878.5503071608806
90,878.6587618826906
91,878.7710216154117
92,878.8871458363054
93,879.0071781891739
94,879.1311463855085
95,879.2590622037775
96,879.3909215846091
97,879.5267048173438
98,879.6663768108854
99,879.8098874398819
100,879.9571719565806
101,880.1081514592933
102,880.2627334096757
103,880.4208121920909
104,880.5822697086733
105,880.7469760035425
106,880.9147899094447
107,881.0855597101498
108,881.2591238120513
109,881.4353114185055
110,881.6139432006831
111,881.7948319592285
112,881.9777832717359
113,882.1625961217503
114,882.3490635057815
115,882.5369730160485
116,882.7261073984085
117,882.9162450865019
118,883.1071607138081
119,883.2986256049445
120,883.4904082467672
121,883.6822747394455
122,883.8739892280719
123,884.0653143163867
124,884.2560114654358
125,884.4458413810302
126,884.6345643945324
127,884.8219408417607
128,885.0077314448012
129,885.191697701425
130,885.3736022866351
131,885.5532094702758
132,885.7302855531079
133,885.90459932122
134,886.075922515937
135,886.2440303145722
136,886.4087018167202
137,886.5697205307137
138,886.7268748547597
139,886.8799585471924
140,887.0287711807414
141,887.1731185769921
142,887.3128132189881
143,887.4476746413437
144,887.5775297976135
145,887.7022134041949
146,887.8215682597489
147,887.9354455398933
148,888.0437050686614
149,888.1462155701098
150,888.2428549047535
151,888.3335102957222
152,888.4180785484908
153,888.4964662660576
154,888.5685900593945
155,888.6343767517315
156,888.6937635748362
157,888.7466983552202
158,888.7931396876538
159,888.8330570927275
160,888.8664311548184
161,888.89325363664
162,888.913527566362
163,888.9272672931977
164,888.9344985076048
165,888.9352582229114
166,888.9295947160293
167,888.9175674255923
168,888.8992468062921
169,888.8747141386659
170,888.8440612944903
171,888.8073904591586
172,888.7648138135531
173,888.716453178717
174,888.6624396269457
175,888.6029130626507
176,888.5380217756127
177,888.4679219687011
178,888.3927772624494
179,888.3127581802369
180,888.2280416199919
181,888.1388103206716
182,888.0452523335342
183,887.9475605086535
184,887.8459320058168
185,887.7405678361254
186,887.6316724371842
187,887.5194532818771
188,887.4041205189384
189,887.2858866426521
190,887.1649661884718
191,887.0415754508724
192,886.9159322194373
193,886.7882555291823
194,886.658765421248
195,886.5276827099675
196,886.3952287517391
197,886.2616252104839
198,886.127093814354
199,885.9918560990823
200,885.856133134762
201,885.7201452343782
202,885.5841116436519
203,885.4482502125237
204,885.3127770490132
205,885.1779061565958
206,885.0438490570907
207,884.9108144024783
208,884.7790075807745
209,884.648630322752
210,884.5198803174003
211,884.3929508438819
212,884.2680304261925
213,884.1453025146685
214,884.0249451968137
215,883.9071309386478
216,883.7920263563713
217,883.6797920165242
218,883.5705822614367
219,883.4645450559652
220,883.3618218509366
221,883.2625474576931
222,883.166849926396
223,883.0748504189469
224,882.9866630664256
225,882.902394801211
226,882.8221451552133
227,882.7460060175758
228,882.6740613477676
229,882.6063868432701
230,882.5430495645649
231,882.484107522799
232,882.4296092368072
233,882.3795932665716
234,882.3340877305387
235,882.2931098149749
236,882.2566652848989
237,882.2247480077594
238,882.1973395022309
239,882.1744085246805
240,882.1559107048455
241,882.1417882402628
242,882.1319696565603
243,882.1263696386277
244,882.1248889364609
245,882.1274143489576
246,882.1338187885767
247,882.1439614291899
248,882.15768793876
249,882.1748307979508
250,882.1952097053083
251,882.2186320688805
252,882.2448935829984
253,882.2737788878884
254,882.3050623089126
255,882.3385086709256
256,882.3738741813439
257,882.4109073739586
258,882.4493501049388
259,882.4889385923366
260,882.5294044900835
261,882.5704759872909
262,882.6118789241355
263,882.6533379164119
264,882.6945774813639
265,882.7353231575569
266,882.7753026114885
267,882.8142467233847
268,882.8518906444957
269,882.8879748186514
270,882.9222459618738
271,882.9544579950302
272,882.9843729256609
273,883.0117616762899
274,883.0364048575782
275,883.0580934853137
276,883.0766296402875
277,883.0918270695715
278,883.103511726637
279,883.1115222463079
280,883.115710349335
281,883.1159411710906
282,883.1120935098771
283,883.1040599923348
284,883.0917471557196
285,883.0750754483935
286,883.0539791503342
287,883.0284062155931
288,882.9983180392675
289,882.9636891525028
290,882.9245068497278
291,882.8807707530361
292,882.8324923198502
293,882.7796943013415
294,882.7224101600145
295,882.66068345556
296,882.5945672085966
297,882.5241232515108
298,882.4494215738322
299,882.37053966732
300,882.2875618745519
301,882.2005787447372
302,882.1096864009305
303,882.0149859225402
304,881.9165827456561
305,881.8145860822073
306,881.7091083584488
307,881.6002646736387
308,881.4881722798693
309,881.3729500833551
310,881.2547181666937
311,881.1335973313878
312,881.0097086600396
313,880.883173097623
314,880.7541110510776
315,880.6226420065104
316,880.4888841638061
317,880.3529540892524
318,880.2149663874985
319,880.0750333946323
320,879.9332648944049
321,879.7897678595874
322,879.644646219875
323,879.4980006564537
324,879.3499284213932
325,879.2005231780225
326,879.0498748572365
327,878.8980695247067
328,878.7451892549998
329,878.5913120101685
330,878.4365115220181
331,878.2808571783933
332,878.1244139139054
333,877.9672421047075
334,877.8093974662356
335,877.6509309530458
336,877.4918886605898
337,877.33231172916
338,877.1722362501575
339,877.0116931747999
340,876.8507082256743
341,876.6893018121715
342,876.527488951683
343,876.3652791993003
344,876.2026765894049
345,876.0396795929033
346,875.8762810939984
347,875.7124683907372
348,875.5482232245571
349,875.3835218453801
350,875.2183351198098
351,875.0526286905122
352,874.886363195078
353,874.7194945522805
354,874.5519743219699
355,874.3837501417231
356,874.2147662394143
357,874.04496401711
358,873.8742826987682
359,873.7026600321008
360,873.5300330335024
361,873.3563387642412
362,873.1815151262599
363,873.0055016667271
364,872.8282403816414
365,872.649676510185
366,872.4697593130398
367,872.2884428291645
368,872.1056866061315
369,871.9214563989118
370,871.7357248315881
371,871.5484720169138
372,871.3596861301266
373,871.1693639348425
374,870.9775112589136
375,870.7841434169303
376,870.5892855750362
377,870.392973054227
378,870.1952515703856
379,869.9961774119979
380,869.7958175586487
381,869.5942497443372
382,869.3915624693265
383,869.1878549631153
384,868.9832370999628
385,868.7778292678133
386,868.5717621916012
387,868.3651767124484
388,868.1582235249488
389,867.951062875583
390,867.7438642263196
391,867.5368058881733
392,867.330074629315
393,867.1238652613359
394,866.9183802062729
395,866.7138290466326
396,866.5104280605731
397,866.3083997438966
398,866.1079723193328
399,865.9093792320851
400,865.71285862899
401,865.5186528169414
402,865.3270076947128
403,865.1381721514475
404,864.952397425201
405,864.7699364159894
406,864.5910429495143
407,864.4159709897456
408,864.2449738007089
409,864.0783030601558
410,863.9162079300722
411,863.7589340905922
412,863.6067227444872
413,863.4598095994457
414,863.3184238356292
415,863.182787066667
416,863.0531123028629
417,862.9296029255212
418,862.8124516811071
419,862.7018397038457
420,862.5979355752454
421,862.5008944284265
422,862.4108571038905
423,862.3279493620743
424,862.2522811574258
425,862.183945979154
426,862.1230202651278
427,862.0695628969457
428,862.0236147848996
429,861.9851985509772
430,861.9543183167078
431,861.9309596013034
432,861.9150893342936
433,861.9066559851082
434,861.9055898093575
435,861.9118032079842
436,861.9251911915889
437,861.9456319391072
438,861.97298743869
439,862.0071041993598
440,862.0478140239885
441,862.0949348362282
442,862.1482715555711
443,862.2076170156375
444,862.2727529214264
445,862.3434508417104
446,862.4194732326672
447,862.5005744881893
448,862.586502011631
449,862.6769973033572
450,862.7717970581002
451,862.8706342657787
452,862.9732393097045
453,863.0793410573561
454,863.1886679404486
455,863.3009490218084
456,863.415915046202
457,863.5332994712621
458,863.6528394737585
459,863.7742769259571
460,863.8973593364746
461,864.021840749663
462,864.1474825974166
463,864.274054497578
464,864.4013349934555
465,864.5291122286121
466,864.6571845499009
467,864.785361030365
468,864.9134619030938
469,865.0413188978955
470,865.168775474552
471,865.2956869490147
472,865.4219205116309
473,865.5473551388803
474,865.6718814019474
475,865.7954011767757
476,865.9178272611364
477,866.0390829049214
478,866.1591012605477
479,866.277824760976
480,866.3952044335198
481,866.5111991589055
482,866.6257748871634
483,866.7389038239138
484,866.850563601067
485,866.9607364445279
486,867.06940834919
487,867.1765682694148
488,867.2822073317396
489,867.3863180758343
490,867.4888937297487
491,867.5899275260246
492,867.6894120658966
493,867.7873387392599
494,867.8836972079343
495,867.9784749585638
496,868.0716569292421
497,868.1632252115579
498,868.2531588282765
499,868.3414335864949
500,868.428022006063
501,868.51289332265
502,868.5960135638098
503,868.6773456947426
504,868.756849828607
505,868.8344834951996
506,868.9102019622052
507,868.9839586043165
508,869.0557053160227
509,869.1253929632367
510,869.1929718676327
511,869.2583923160913
512,869.3216050862025
513,869.3825619777165
514,869.4412163396192
515,869.4975235831599
516,869.551441672263
517,869.6029315836778
518,869.6519577295728
519,869.6984883352178
520,869.7424957646314
521,869.7839567881155
522,869.8228527873492
523,869.8591698957357
524,869.8928990736572
525,869.9240361199475
526,869.9525816218551
527,869.9785408457691
528,870.0019235703306
529,870.0227438632514
530,870.041019803972
531,870.0567731559647
532,870.0700289942257
533,870.0808152948063
534,870.0891624941172
535,870.0951030262886
536,870.0986708472487
537,870.0999009544785
538,870.0988289112722
539,870.0954903833644
540,870.0899206938426
541,870.0821543996144
542,870.0722248897714
543,870.0601640036522
544,870.0460016649739
545,870.0297655284933
546,870.011480637283
547,869.9911690914328
548,869.9688497318316
549,869.9445378444086
550,869.9182448900737
551,869.889978263987
552,869.85974108575
553,869.8275320204808
554,869.7933451299568
555,869.757169753291
556,869.7189904179223
557,869.6787867834081
558,869.6365336214676
559,869.5922008352441
560,869.5457535194467
561,869.4971520620799
562,869.4463522881339
563,869.3933056454543
564,869.3379594329526
565,869.2802570716805
566,869.220138419745
567,869.157540131869
568,869.0923960634065
569,869.0246377173543
570,868.9541947319716
571,868.8809954061853
572,868.8049672598848
573,868.7260376265124
574,868.6441342762627
575,868.5591860694822
576,868.4711236406217
577,868.3798801127036
578,868.2853918411851
579,868.1875991853034
580,868.0864473048568
581,867.9818869803872
582,867.8738754543227
583,867.7623772899129
584,867.6473652440851
585,867.5288211493365
586,867.4067367979778
587,867.2811148198847
588,867.1519695432703
589,867.0193278269895
590,866.8832298520807
591,866.74372985943
592,866.6008968197559
593,866.4548150217953
594,866.3055845647547
595,866.1533217417351
596,865.9981593019478
597,865.8402465810983
598,865.6797494911245
599,865.5168503624026
600,865.3517476338756
601,865.1846553895821
602,865.0158027433464
603,864.845433076112
604,864.6738031322096
605,864.5011819822656
606,864.3278498622336
607,864.1540969002926
608,863.9802217454155
609,863.8065301127313
610,863.6333332618682
611,863.460946426136
612,863.2896872124342
613,863.1198739927974
614,862.9518243075192
615,862.7858532971104
616,862.6222721768991
617,862.4613867646166
618,862.3034960684258
619,862.1488909412227
620,861.9978528069465
621,861.8506524654392
622,861.7075489829597
623,861.5687886751336
624,861.4346041880899
625,861.3052136822944
626,861.1808201223793
627,861.0616106749524
628,860.947756214901
629,860.8394109392442
630,860.7367120864204
631,860.6397797582803
632,860.5487168420009
633,860.4636090292126
634,860.3845249293322
635,860.3115162733891
636,860.244618203804
637,860.1838496449243
638,860.1292137489122
639,860.0806984120048
640,860.0382768571253
641,860.0019082797844
642,859.9715385546889
643,859.9471010004614
644,859.9285171998246
645,859.9156978726803
646,859.9085437991201
647,859.9069467877288
648,859.9107906818249
649,859.9199523938169
650,859.9343029566677
651,859.9537085815191
652,859.9780317114423
653,860.0071320630213
654,860.0408676498643
655,860.0790957846682
656,860.1216740584188
657,860.1684612960175
658,860.2193184867524
659,860.2741096858356
660,860.3327028807444
661,860.3949708144006
662,860.4607917567379
663,860.530050216644
664,860.6026375871038
665,860.6784527171502
666,860.7574024048769
667,860.8394018066273
668,860.9243747587194
669,861.0122540093236
670,861.102981359119
671,861.1965077104402
672,861.2927930259308
673,861.3918061985094
674,861.4935248339001
675,861.5979349454186
676,861.7050305594895
677,861.814813230717
678,861.9272914672765
679,862.0424800699743
680,862.1603993905061
681,862.281074515959
682,862.4045343879224
683,862.5308108660071
684,862.6599377467575
685,862.7919497491756
686,862.9268814771889
687,863.0647663680412
688,863.2056356346078
689,863.3495172093209
690,863.4964346975466
691,863.6464063485382
692,863.7994440523386
693,863.9555523713356
694,864.1147276159633
695,864.2769569753868
696,864.4422177152198
697,864.6104764544443
698,864.7816885325121
699,864.9557974755476
700,865.1327345681457
701,865.3124185348898
702,865.4947553339647
703,865.6796380646371
704,865.8669469908452
705,866.0565496840206
706,866.2483012887577
707,866.4420449145954
708,866.6376121559347
709,866.8348237400296
710,867.0334903000723
711,867.2334132670574
712,867.434385871209
713,867.6361942418317
714,867.8386185931995
715,868.0414344830758
716,868.2444141297188
717,868.4473277732984
718,868.6499450688182
719,868.8520364993141
720,869.0533747991195
721,869.2537363767811
722,869.4529027263629
723,869.6506618151459
724,869.8468094349479
725,870.0411505029721
726,870.2335002966564
727,870.4236856065993
728,870.6115457928963
729,870.7969337326115
730,870.9797166485673
731,871.1597768115589
732,871.3370121097095
733,871.5113364805063
734,871.6826802030758
735,871.8509900500414
736,872.0162292995956
737,872.1783776092859
738,872.3374307537567
739,872.4934002296199
740,872.6463127320593
741,872.7962095097153
742,872.9431456063139
743,873.0871889984583
744,873.2284196384827
745,873.3669284098336
746,873.5028160011096
747,873.6361917044255
748,873.7671721444852
749,873.8958799468465
750,874.0224423570619
751,874.1469898256507
752,874.2696545761072
753,874.390569174209
754,874.5098651172977
755,874.627671462405
756,874.7441135120903
757,874.8593115763538
758,874.9733798278737
759,875.0864252663102
760,875.198546805488
761,875.3098344946634
762,875.4203688820182
763,875.5302205256784
764,875.6394496551974
765,875.7481059844164
766,875.8562286746965
767,875.9638464455751
768,876.070977827838
769,876.17763155185
770,876.2838070618378
771,876.3894951447282
772,876.4946786601458
773,876.5993333561495
774,876.7034287530743
775,876.8069290758301
776,876.9097942143904
777,877.0119806940304
778,877.1134426408704
779,877.2141327328794
780,877.3140031300273
781,877.4130063791257
782,877.5110962895926
783,877.608228776572
784,877.7043626677264
785,877.7994604697394
786,877.8934890903918
787,877.9864205120305
788,878.0782324120202
789,878.1689087252477
790,878.2584401433473
791,878.346824545386
792,878.4340673553426
793,878.5201818229569
794,878.6051892263973
795,878.6891189970826
796,878.7720087679952
797,878.853904346963
798,878.9348596165697
799,879.0149363633419
800,879.0942040406385
801,879.1727394718
802,879.2506265019657
803,879.3279556079001
804,879.4048234747432
805,879.4813325469513
806,879.5575905584553
807,879.6337100449407
808,879.7098078395255
809,879.7860045520068
810,879.8624240311217
811,879.9391928089176
812,880.0164395263321
813,880.0942943392437
814,880.1728883042302
815,880.2523527428257
816,880.3328185824836
817,880.4144156723429
818,880.4972720726106
819,880.5815133178454
820,880.6672616563549
821,880.7546352696902
822,880.8437474769071
823,880.9347059273938
824,881.0276117843653
825,881.1225589000649
826,881.2196329843073
827,881.3189107700464
828,881.4204591818033
829,881.5243345136493
830,881.6305816227672
831,881.7392331433804
832,881.8503087252274
833,881.9638143011235
834,882.0797413888348
835,882.1980664326226
836,882.3187501894524
837,882.4417371648578
838,882.5669551043513
839,882.6943145476902
840,882.8237084546384
841,882.9550119120553
842,883.0880819332732
843,883.2227573614775
844,883.358858888653
845,883.4961892004164
846,883.6345332547336
847,883.773658699325
848,883.913316429205
849,884.0532412830786
850,884.1931528753834
851,884.3327565591246
852,884.4717445130436
853,884.6097969452796
854,884.7465834045931
855,884.881764189128
856,885.0149918414257
857,885.1459127172277
858,885.2741686148881
859,885.399398452137
860,885.5212399773629
861,885.6393315031934
862,885.7533136505638
863,885.8628310916671
864,885.9675342803241
865,886.0670811583782
866,886.1611388265846
867,886.2493851684275
868,886.331510415837
869,886.4072186470943
870,886.4762292091358
871,886.5382780585932
872,886.5931190175778
873,886.6405249409208
874,886.6802887912459
875,886.7122246171637
876,886.7361684283428
877,886.7519789596668
878,886.7595383156489
879,886.758752486042
880,886.749551724204
881,886.7318907811965
882,886.7057489904779
883,886.6711302000454
884,886.628062550794
885,886.5765981014933
886,886.5168123017673
887,886.4488033149
888,886.3726911929671
889,886.2886169085273
890,886.196741250158
891,886.0972435931566
892,885.990320560919
893,885.8761845957199
894,885.7550624591022
895,885.62719368193
896,885.4928289830485
897,885.3522286741138
898,885.2056610669056
899,885.0534008984633
900,884.8957277884439
901,884.7329247415955
902,884.5652767057084
903,884.3930691922548
904,884.216586964489
905,884.0361127970567
906,883.851926311923
907,883.6643028964821
908,883.473512710092
909,883.2798197848595
910,883.0834812257399
911,882.8847465142254
912,882.6838569191948
913,882.481045018077
914,882.2765343312961
915,882.070539072311
916,881.8632640137868
917,881.6549044678684
