frame_number,force
0,872.9907229999485
1,872.8800724918586
2,872.7713499884662
3,872.6664479718886
4,872.5671888124143
5,872.4752920728691
6,872.3923447027898
7,872.319775107513
8,872.2588319366749
9,872.2105681323317
10,872.1758303745116
11,872.1552536626511
12,872.1492604267343
13,872.1580633025623
14,872.1816706075597
15,872.2198936875076
16,872.272355621919
17,872.3385011255438
18,872.4176077510244
19,872.5087986642787
20,872.6110573437422
21,872.7232445446602
22,872.844117763469
23,872.9723532443466
24,873.106570330168
25,873.245357736714
26,873.3873011535417
27,873.5310114190802
28,873.6751523648996
29,873.818467329882
30,873.9598033709924
31,874.0981323324609
32,874.2325681227442
33,874.3623797420128
34,874.4869997725124
35,874.6060281877582
36,874.719231486657
37,874.826537333918
38,874.9280250550679
39,875.0239124435614
40,875.1145393817446
41,875.200348807092
42,875.2818656289984
43,875.3596743199637
44,875.4343959972585
45,875.5066657807328
46,875.5771110315789
47,875.6463308602574
48,875.7148771968245
49,875.783237751287
50,875.8518212287414
51,875.9209451361766
52,875.9908264788613
53,876.0615756597589
54,876.1331939381578
55,876.2055747597475
56,876.2785090672871
57,876.3516944231044
58,876.42474759086
59,876.4972202232238
60,876.5686174272255
61,876.638419054629
62,876.7061034053014
63,876.7711726214776
64,876.8331785979483
65,876.8917479922885
66,876.9466049790701
67,876.9975906322665
68,877.044678052319
69,877.0879825016721
70,877.1277659523059
71,877.1644356938018
72,877.1985370154048
73,877.2307403725837
74,877.2618237966363
75,877.2926515846849
76,877.3241504829695
77,877.3572845758025
78,877.3930299367535
79,877.4323499475626
80,877.4761721479061
81,877.5253674540294
82,877.5807324227105
83,877.6429749149362
84,877.7127031568257
85,877.7904179481121
86,877.8765076728421
87,877.9712457676055
88,878.0747903243208
89,878.1871855113922
90,878.3083645116076
91,878.4381537378065
92,878.576278201535
93,878.722368052469
94,878.8759664456009
95,879.0365389612646
96,879.2034847157768
97,879.3761490522674
98,879.5538374004
99,879.7358296810056
100,879.9213945962709
101,880.1098032931429
102,880.3003421272055
103,880.4923244481976
104,880.6851013962797
105,880.878071671406
106,881.0706901983373
107,881.2624755919668
108,881.4530163081696
109,881.6419753314318
110,881.8290932296853
111,882.0141894231957
112,882.1971615533618
113,882.3779828699614
114,882.5566975969448
115,882.7334143474037
116,882.908297846389
117,883.0815593862236
118,883.2534464649799
119,883.4242319292567
120,883.5942027549169
121,883.7636484778334
122,883.9328492923473
123,884.102063946923
124,884.2715177197053
125,884.4413908896695
126,884.6118081989345
127,884.7828298283279
128,884.9544444024159
129,885.126564526764
130,885.2990253408408
131,885.4715864923598
132,885.6439377199785
133,885.8157078613599
134,885.9864767098562
135,886.1557888904207
136,886.3231688566106
137,886.488136131533
138,886.6502199318917
139,886.8089723350872
140,886.9639792523795
141,887.1148687006145
142,887.2613161687827
143,887.4030471231218
144,887.539836777423
145,887.6715072036266
146,887.7979218321871
147,887.9189775283024
148,888.0345947138677
149,888.1447063112195
150,888.2492464941882
151,888.3481402718406
152,888.4412947720629
153,888.5285927846269
154,888.6098888022884
155,888.6850075969818
156,888.7537452966108
157,888.8158728801506
158,888.8711419079202
159,888.9192921844201
160,888.9600609697729
161,888.993193301692
162,889.0184529314733
163,889.035633330619
164,889.0445682292564
165,889.0451412135737
166,889.0372940020877
167,889.0210330867668
168,888.996434450451
169,888.9636461069958
170,888.922888310592
171,888.8744514322017
172,888.8186916421106
173,888.7560246274038
174,888.6869175938839
175,888.6118797343745
176,888.5314512126406
177,888.4461906128452
178,888.3566608434434
179,888.2634136938607
180,888.1669735797184
181,888.0678213851238
182,887.9663795969349
183,887.8630000112584
184,887.7579551119234
185,887.6514338070142
186,887.543541706109
187,887.4343057017516
188,887.3236823737248
189,887.2115696307579
190,887.0978209530506
191,886.9822615556042
192,886.8647057743395
193,886.744975004144
194,886.6229155636511
195,886.4984158636395
196,886.3714221863112
197,886.2419522981362
198,886.1101061144024
199,885.9760727585735
200,885.8401335854965
201,885.7026609847416
202,885.5641129789165
203,885.4250237578219
204,885.2859903594381
205,885.1476557786283
206,885.0106889248916
207,884.875762080282
208,884.7435267850925
209,884.6145893477324
210,884.4894873594241
211,884.3686685850921
212,884.2524733749405
213,884.1411214310109
214,884.0347035146132
215,883.9331784910244
216,883.8363758939939
217,883.7440039415102
218,883.6556627160664
219,883.5708620862953
220,883.4890438413133
221,883.4096073241151
222,883.3319375486452
223,883.2554344656786
224,883.1795418460036
225,883.1037742357245
226,883.0277405740912
227,882.951163296964
228,882.8738920761317
229,882.795911780759
230,882.7173447160022
231,882.6384475336363
232,882.5596033378508
233,882.4813095032049
234,882.4041617094701
235,882.3288347609675
236,882.2560609206473
237,882.1866067056648
238,882.1212492533602
239,882.0607533814793
240,882.0058503096524
241,881.9572187134181
242,881.9154684321039
243,881.8811268693836
244,881.8546279908758
245,881.8363038118146
246,881.8263782909297
247,881.8249635470064
248,881.8320583073913
249,881.8475485226585
250,881.8712101244629
251,881.9027139009594
252,881.9416324072992
253,881.9874487869888
254,882.039567363975
255,882.0973257792178
256,882.1600082646296
257,882.2268595098843
258,882.2970985855442
259,882.3699324549345
260,882.4445686366903
261,882.5202266208362
262,882.5961477710892
263,882.6716036150965
264,882.7459025380857
265,882.8183949384952
266,882.8884768993539
267,882.9555923843255
268,883.0192339275007
269,883.0789418250349
270,883.1343019553589
271,883.184942487243
272,883.2305298516712
273,883.2707644644403
274,883.3053767715207
275,883.3341242017718
276,883.3567895281959
277,883.373180960275
278,883.3831340212855
279,883.3865149380289
280,883.3832249769952
281,883.3732050128498
282,883.3564396641099
283,883.3329605391139
284,883.302848389768
285,883.2662341195348
286,883.223298573518
287,883.1742709710159
288,883.1194258623541
289,883.0590785677896
290,882.9935790992248
291,882.9233046222195
292,882.8486506602801
293,882.7700214157605
294,882.687819700613
295,882.6024370629002
296,882.5142447685832
297,882.4235862373043
298,882.3307712683518
299,882.2360720630548
300,882.1397208634271
301,882.0419090540412
302,881.9427876876938
303,881.8424694022095
304,881.7410315371701
305,881.6385200828636
306,881.5349540761122
307,881.4303301780194
308,881.3246272500346
309,881.2178107067361
310,881.1098363671651
311,881.0006535535025
312,880.8902072663059
313,880.7784393224352
314,880.665288370121
315,880.5506887524634
316,880.4345683146897
317,880.3168454146726
318,880.1974255405987
319,880.0761980382441
320,879.953033509099
321,879.8277824470397
322,879.700275598964
323,879.5703263326187
324,879.4377349842639
325,879.3022948323697
326,879.1637991354601
327,879.0220486494044
328,878.8768591666346
329,878.7280688248608
330,878.5755451460136
331,878.4191918970464
332,878.2589558276678
333,878.0948331630483
334,877.9268755713807
335,877.755195307851
336,877.5799692983697
337,877.4014419388863
338,877.2199263321904
339,877.0358036393777
340,876.8495202361154
341,876.661582436551
342,876.4725486625754
343,876.2830190601499
344,876.0936226671238
345,875.9050023037105
346,875.7177973994079
347,875.5326250550162
348,875.3500598313799
349,875.1706130132967
350,874.9947123119746
351,874.8226831174992
352,874.6547325206084
353,874.4909373411418
354,874.3312372240067
355,874.1754334622873
356,874.0231936786507
357,873.8740619960655
358,873.7274739546737
359,873.5827751801775
360,873.4392426527505
361,873.296107379055
362,873.15257734747
363,873.0078598145832
364,872.8611821847416
365,872.7118109843597
366,872.5590686786896
367,872.4023482780138
368,872.241125762012
369,872.074970295169
370,871.9035521104433
371,871.7266479641003
372,871.5441442471349
373,871.3560380025784
374,871.1624360445218
375,870.96355212266
376,870.7597018510512
377,870.5512951282113
378,870.3388260316818
379,870.122860522284
380,869.9040225647667
381,869.6829793593779
382,869.460426274755
383,869.2370718508234
384,869.0136230195696
385,868.7907705679619
386,868.5691748612547
387,868.3494519098408
388,868.1321599560521
389,867.9177868838385
390,867.7067389120746
391,867.4993311477864
392,867.2957805569646
393,867.0962017680135
394,866.9006059809043
395,866.7089032094457
396,866.5209080847997
397,866.336349378197
398,866.1548832244241
399,865.9761097938662
400,865.7995929041605
401,865.6248817877512
402,865.4515339770899
403,865.2791381098675
404,865.1073354424907
405,864.93583898613
406,864.7644494003356
407,864.5930670399891
408,864.4216998302453
409,864.2504669457237
410,864.0795985597599
411,863.9094321151745
412,863.7404055967389
413,863.5730482291682
414,863.4079690062159
415,863.2458435068305
416,863.0873995000628
417,862.9334018196249
418,862.7846369270877
419,862.6418975413653
420,862.5059676827798
421,862.3776083841547
422,862.2575441384057
423,862.1464499744995
424,862.0449389933357
425,861.9535503053098
426,861.8727375748581
427,861.8028586840665
428,861.7441672146597
429,861.696806442952
430,861.6608064264537
431,861.6360846509348
432,861.6224506147704
433,861.6196145637005
434,861.6272002784789
435,861.6447613709425
436,861.6718000519735
437,861.707786955864
438,861.752180503259
439,861.8044444970792
440,861.8640630463184
441,861.9305523273213
442,862.0034690139996
443,862.0824154280396
444,862.167041628459
445,862.2570447906943
446,862.3521662665719
447,862.4521866622199
448,862.5569192049106
449,862.6662016410864
450,862.7798868774338
451,862.89783254075
452,863.019889685463
453,863.14589107629
454,863.2756397119846
455,863.4088983666458
456,863.5453808507888
457,863.6847455137859
458,863.8265913362497
459,863.9704568422571
460,864.1158219597351
461,864.2621128425603
462,864.4087095796957
463,864.5549566881358
464,864.700176255111
465,864.8436834513532
466,864.9848038538835
467,865.1228917015465
468,865.2573480126058
469,865.38763749544
470,865.513303357523
471,865.633979395375
472,865.7493990442214
473,865.8594013083074
474,865.9639336523286
475,866.063052013753
476,866.1569181113838
477,866.2457942157525
478,866.3300355433008
479,866.4100804327237
480,866.4864384779022
481,866.5596769153649
482,866.6304058292703
483,866.6992629973255
484,866.7668992376044
485,866.8339648765123
486,866.9010975980324
487,866.9689116245587
488,867.0379879849529
489,867.1088655603555
490,867.1820326642555
491,867.257919072969
492,867.3368886150846
493,867.4192326013558
494,867.5051644682134
495,867.5948159455432
496,867.6882348418712
497,867.7853843032728
498,867.8861433140486
499,867.9903082907518
500,868.097595756298
501,868.207646157292
502,868.3200288646797
503,868.434248270993
504,868.5497507334339
505,868.6659320647605
506,868.7821454359782
507,868.8977098162982
508,869.0119192302186
509,869.1240530767731
510,869.2333876018413
511,869.3392084173179
512,869.4408237528194
513,869.5375779617356
514,869.6288647546111
515,869.7141397056661
516,869.7929317047441
517,869.8648531139636
518,869.9296083731425
519,869.9870007087662
520,870.0369365478433
521,870.0794273035577
522,870.1145883690392
523,870.142635362835
524,870.1638778654941
525,870.1787110339154
526,870.1876055223204
527,870.1910960326876
528,870.1897686163289
529,870.1842467067013
530,870.1751759016279
531,870.1632076946751
532,870.1489825546001
533,870.1331128954175
534,870.1161665656294
535,870.0986515304213
536,870.0810024505619
537,870.0635698860584
538,870.0466128229159
539,870.0302950677932
540,870.0146857599915
541,869.9997638503169
542,869.9854259601888
543,869.9714966632923
544,869.9577400361417
545,869.9438713685417
546,869.9295682094108
547,869.9144803787323
548,869.8982390519187
549,869.8804653222452
550,869.8607786558023
551,869.8388054317684
552,869.814187470384
553,869.7865902222841
554,869.7557101928244
555,869.7212812389803
556,869.6830795979881
557,869.6409277884688
558,869.5946976887192
559,869.5443130360906
560,869.489751403017
561,869.4310455715004
562,869.3682841932103
563,869.3016116158191
564,869.2312267706203
565,869.1573810972961
566,869.0803755826896
567,869.0005569984507
568,868.9183133087722
569,868.8340680688156
570,868.7482735421346
571,868.6614022577288
572,868.5739367809587
573,868.4863575908889
574,868.3991291746008
575,868.3126847297735
576,868.2274100706603
577,868.1436273615676
578,868.0615792245477
579,867.9814137356242
580,867.9031708933251
581,867.8267712327404
582,867.752007276736
583,867.6785384795603
584,867.605890275323
585,867.5334577427051
586,867.4605141619095
587,867.386224434489
588,867.3096630948667
589,867.2298364841392
590,867.1457085105587
591,867.056229253165
592,866.9603654987906
593,866.8571321747503
594,866.7456235692606
595,866.6250432155806
596,866.4947313542989
597,866.3541889809395
598,866.2030976034657
599,866.0413339590991
600,865.8689791193733
601,865.6863216909796
602,865.4938551370631
603,865.2922694717154
604,865.082437669674
605,864.8653971672876
606,864.6423269298351
607,864.4145207456592
608,864.1833575764624
609,863.9502698627417
610,863.7167107320051
611,863.4841212201673
612,863.2538988561854
613,863.0273690652615
614,862.8057606635933
615,862.5901862916583
616,862.3816281091836
617,862.1809285699355
618,861.9887856998902
619,861.8057521211449
620,861.6322371382873
621,861.468511432319
622,861.3147141114392
623,861.1708619449712
624,861.0368605816968
625,860.9125175033479
626,860.7975564210168
627,860.6916327664717
628,860.5943498494571
629,860.5052751715482
630,860.4239563487022
631,860.3499361370034
632,860.282766179756
633,860.2220192307356
634,860.1672996798288
635,860.1182522059527
636,860.0745683534727
637,860.0359908178491
638,860.0023152752686
639,859.9733897308845
640,859.9491115728827
641,859.9294227258484
642,859.9143034188386
643,859.9037651229532
644,859.8978432393675
645,859.8965901585791
646,859.9000692720629
647,859.9083502749816
648,859.9215056870999
649,859.939608143758
650,859.9627278285736
651,859.9909294267875
652,860.0242681180699
653,860.0627843897668
654,860.1064978126873
655,860.1554003005518
656,860.2094496603847
657,860.2685643312162
658,860.3326200463275
659,860.4014487851489
660,860.4748399605312
661,860.552543484913
662,860.6342742399518
663,860.7197174944405
664,860.8085348917273
665,860.9003706896493
666,860.9948579712005
667,861.0916246064035
668,861.1902988618417
669,861.2905146664684
670,861.3919166097596
671,861.4941648224188
672,861.5969399933603
673,861.6999487945853
674,861.8029297918033
675,861.9056595642392
676,862.0079584552476
677,862.1096953132816
678,862.2107907700291
679,862.3112188890852
680,862.4110072442571
681,862.5102356129684
682,862.6090335690042
683,862.7075773824215
684,862.8060867255263
685,862.9048216345878
686,863.0040799634731
687,863.1041952899278
688,863.2055350282074
689,863.3084984122482
690,863.4135140086589
691,863.5210364488826
692,863.631542109108
693,863.7455235334837
694,863.8634825505244
695,863.9859222891937
696,864.1133385517545
697,864.2462110987692
698,864.3849953103673
699,864.5301144767731
700,864.6819527170999
701,864.840848292877
702,865.0070869598071
703,865.180895065699
704,865.3624323439736
705,865.5517846652647
706,865.7489572679996
707,865.9538691198964
708,866.1663490577087
709,866.3861342164641
710,866.6128709919536
711,866.8461184431469
712,867.0853537665708
713,867.3299793416819
714,867.579330809848
715,867.8326856347015
716,868.0892716063664
717,868.3482748772433
718,868.6088473950049
719,868.8701139363335
720,869.131179161142
721,869.3911351117106
722,869.6490694644563
723,869.9040747210977
724,870.1552583758422
725,870.4017538388454
726,870.6427315993911
727,870.8774099561164
728,871.1050647221
729,871.3250375495533
730,871.536742748766
731,871.7396726048844
732,871.9334012631739
733,872.1175873395051
734,872.291975519217
735,872.4563974689768
736,872.6107723636616
737,872.7551072401372
738,872.8894972773865
739,873.0141260224352
740,873.1292655822006
741,873.2352768886109
742,873.3326102369718
743,873.4218062516377
744,873.5034971737252
745,873.5784079779482
746,873.6473564748189
747,873.7112513570023
748,873.7710871584713
749,873.8279353427283
750,873.8829311807813
751,873.9372565598144
752,873.9921192123192
753,874.0487290457625
754,874.1082723678193
755,874.1718849117896
756,874.2406246695163
757,874.3154455872711
758,874.397173156466
759,874.4864828660874
760,874.583882370974
761,874.6896980262409
762,874.8040661766507
763,874.9269293693523
764,875.0580375207841
765,875.1969539832631
766,875.3430663875405
767,875.4956020595283
768,875.6536477053087
769,875.8161729291709
770,875.9820570058705
771,876.150118177984
772,876.3191445936573
773,876.4879258200866
774,876.6552836367476
775,876.8201005888725
776,876.981344751715
777,877.1380894822942
778,877.2895275749971
779,877.4349799489094
780,877.5738995181936
781,877.705871138926
782,877.8306085695973
783,877.9479493315421
784,878.0578482426417
785,878.1603702457264
786,878.2556830082641
787,878.3440496375965
788,878.4258216889699
789,878.5014324299783
790,878.5713901276123
791,878.6362710022757
792,878.6967114576411
793,878.7533992630317
794,878.8070635410522
795,878.8584635980435
796,878.9083766926808
797,878.9575847724606
798,879.0068601614053
799,879.0569502711598
800,879.1085616335139
801,879.1623438434349
802,879.2188742622337
803,879.2786444584334
804,879.3420492913444
805,879.4093792887197
806,879.4808166324931
807,879.5564347531514
808,879.6362013030955
809,879.7199841321315
810,879.8075598033884
811,879.8986241609157
812,879.9928044871755
813,880.0896728376379
814,880.1887601545383
815,880.2895707075544
816,880.391596326594
817,880.4943298754739
818,880.5972775206807
819,880.6999695639421
820,880.801969884732
821,880.902884284759
822,881.0023680959139
823,881.1001332339954
824,881.19595456703
825,881.2896752470671
826,881.3812106886089
827,881.4705511341871
828,881.557763020367
829,881.6429894298283
830,881.7264497511002
831,881.8084384208315
832,881.889322478009
833,881.9695376727917
834,882.0495829440666
835,882.1300130766343
836,882.2114292776407
837,882.2944674107297
838,882.3797837788221
839,882.4680385920346
840,882.5598775057923
841,882.6559118543163
842,882.7566984508229
843,882.8627200269301
844,882.9743674595949
845,883.0919248518668
846,883.2155582961124
847,883.3453087865054
848,883.4810893679014
849,883.6226863364417
850,883.7697641616825
851,883.921873704202
852,884.0784632141821
853,884.2388915418283
854,884.4024429781322
855,884.5683431279197
856,884.7357751673132
857,884.9038957924853
858,885.0718501840097
859,885.238785414895
860,885.4038619016886
861,885.5662626823148
862,885.7252004445651
863,885.8799223197365
864,886.0297125232576
865,886.1738929609127
866,886.3118219094121
867,886.4428908677406
868,886.5665197362244
869,886.6821506444888
870,886.7892409927589
871,886.8872565282178
872,886.975665450686
873,887.0539345476069
874,887.1215281896806
875,887.177910718604
876,887.2225523767139
877,887.2549385336027
878,887.274581638529
879,887.2810351166804
880,887.2739083430038
881,887.2528818590483
882,887.2177220995073
883,887.1682950095842
884,887.1045780367637
885,887.0266700396392
886,886.9347986190805
887,886.8293242598164
888,886.7107405981687
889,886.5796702339575
890,886.4368558233244
891,886.2831466751725
892,886.119481599278
893,885.9468691458256
894,885.7663665170735
895,885.579058338824
896,885.3860362593006
897,885.1883801013884
898,884.987141096143
899,884.7833275918678
900,884.5778935265752
901,884.3717297785525
902,884.1656581967353
903,883.9604277243651
904,883.7567117672022
905,883.5551059800309
906,883.3561259118372
907,883.1602042749248
908,882.9676878326993
909,882.7788340153788
910,882.5938074386817
911,882.4126765652884
912,882.2354108279733
913,882.061878654234
914,881.8918469855719
915,881.7249829588428
916,881.5608583076104
917,881.3989567986308
