frame_number,force
0,872.990722746635
1,873.0159808003136
2,873.0412776706391
3,873.0666521435512
4,873.0921429439143
5,873.1177887057576
6,873.1436279434419
7,873.1696990240488
8,873.1960401412638
9,873.2226892909963
10,873.2496842489275
11,873.2770625501342
12,873.3048614708954
13,873.3331180127396
14,873.3618688887686
15,873.3911505122635
16,873.4209989875817
17,873.4514501033425
18,873.4825393278877
19,873.5143018069897
20,873.5467723637549
21,873.5799855006422
22,873.6139754034839
23,873.6487759473616
24,873.6844207041495
25,873.7209429515019
26,873.7583756830353
27,873.7967516194246
28,873.8361032201138
29,873.8764626953185
30,873.9178620179947
31,873.9603329354501
32,874.0039069802785
33,874.0486154803134
34,874.094489567306
35,874.1415601840473
36,874.1898580896675
37,874.2394138628654
38,874.2902579028417
39,874.3424204277253
40,874.3959314702997
41,874.4508208708547
42,874.5071182670015
43,874.5648530803221
44,874.6240544997415
45,874.68475146153
46,874.7469726258468
47,874.8107463497462
48,874.8761006565778
49,874.9430632017348
50,875.0116612347261
51,875.0819215575691
52,875.1538704795161
53,875.2275337681486
54,875.3029365968982
55,875.3801034890671
56,875.4590582584352
57,875.5398239465343
58,875.6224227566843
59,875.7068759849063
60,875.7932039478512
61,875.881425907913
62,875.9715599956983
63,876.063623130022
64,876.1576309355867
65,876.2535976585053
66,876.3515360798478
67,876.451457427426
68,876.5533712860654
69,876.6572855066314
70,876.763206114105
71,876.8711372150316
72,876.9810809047001
73,877.0930371744469
74,877.2070038195121
75,877.3229763478968
76,877.440947890689
77,877.5609091143316
78,877.6828481352883
79,877.8067504375637
80,877.9325987935222
81,878.0603731884424
82,878.1900507492314
83,878.3216056776886
84,878.455009188678
85,878.5902294535375
86,878.7272315490322
87,878.8659774121446
88,879.0064258009747
89,879.148532262008
90,879.2922491039863
91,879.4375253786015
92,879.5843068682148
93,879.7325360807909
94,879.882152252225
95,880.0330913562141
96,880.1852861218
97,880.3386660586665
98,880.4931574902339
99,880.648683594552
100,880.80516445297
101,880.9625171065453
102,881.1206556201464
103,881.2794911541966
104,881.4389320439886
105,881.5988838864741
106,881.7592496344137
107,881.91992969775
108,882.0808220520497
109,882.2418223538361
110,882.402824062621
111,882.5637185694253
112,882.7243953315674
113,882.8847420134847
114,883.0446446333436
115,883.203987715184
116,883.3626544463478
117,883.520526839936
118,883.6774859020302
119,883.8334118033952
120,883.9881840553531
121,884.1416816895053
122,884.2937834409629
123,884.444367934752
124,884.5933138750495
125,884.7405002369132
126,884.8858064601661
127,885.0291126450792
128,885.1702997495015
129,885.3092497870698
130,885.4458460261233
131,885.5799731889401
132,885.7115176508931
133,885.840367639091
134,885.9664134300453
135,886.089547545884
136,886.2096649486225
137,886.3266632320109
138,886.440442810472
139,886.5509071046506
140,886.6579627231038
141,886.7615196396763
142,886.8614913661374
143,886.9577951196709
144,887.0503519848281
145,887.1390870695568
146,887.2239296549257
147,887.3048133381849
148,887.3816761688338
149,887.4544607773989
150,887.523114496655
151,887.5875894750365
152,887.6478427819922
153,887.7038365050349
154,887.7555378382341
155,887.8029191619045
156,887.8459581132608
157,887.8846376478207
158,887.9189460913555
159,887.9488771822032
160,887.974430103773
161,887.9956095070892
162,888.0124255232432
163,888.0248937656424
164,888.0330353219691
165,888.0368767357909
166,888.0364499777933
167,888.0317924066362
168,888.0229467194613
169,888.0099608921024
170,887.9928881090849
171,887.971786683531
172,887.9467199671216
173,887.9177562502937
174,887.8849686528805
175,887.8484350054096
176,887.8082377212976
177,887.7644636601888
178,887.7172039827036
179,887.666553996901
180,887.6126129967972
181,887.5554840933212
182,887.4952740381214
183,887.4320930406623
184,887.3660545790466
185,887.2972752049873
186,887.2258743433322
187,887.1519740865272
188,887.0756989843967
189,886.9971758296247
190,886.9165334393199
191,886.8339024330569
192,886.7494150077877
193,886.6632047100272
194,886.57540620572
195,886.4861550482012
196,886.3955874446659
197,886.3038400215527
198,886.21104958925
199,886.1173529065435
200,886.0228864452338
201,885.9277861553733
202,885.832187231574
203,885.7362238808506
204,885.6400290924562
205,885.5437344101744
206,885.4474697075251
207,885.3513629663569
208,885.255540059304
209,885.1601245365932
210,885.0652374176896
211,884.9709969882568
212,884.8775186028814
213,884.7849144939735
214,884.6932935872329
215,884.6027613240373
216,884.5134194910806
217,884.4253660575641
218,884.3386950202021
219,884.2534962562894
220,884.169855385049
221,884.0878536374496
222,884.007567734649
223,883.9290697751793
224,883.8524271309656
225,883.7777023522478
226,883.7049530814683
227,883.634231976185
228,883.5655866410812
229,883.4990595691467
230,883.4346880921254
231,883.3725043403246
232,883.3125352118741
233,883.2548023515087
234,883.1993221389248
235,883.1461056867508
236,883.0951588481629
237,883.0464822341705
238,883.0000712405919
239,882.9559160847156
240,882.9140018516165
241,882.8743085500538
242,882.8368111778353
243,882.8014797964925
244,882.7682796150775
245,882.7371710828768
246,882.7081099908032
247,882.6810475812216
248,882.6559306659263
249,882.6327017519806
250,882.611299175098
251,882.591657240235
252,882.5737063690337
253,882.5573732537374
254,882.5425810171768
255,882.5292493784063
256,882.5172948235428
257,882.5066307813356
258,882.497167802985
259,882.4888137457202
260,882.4814739596434
261,882.4750514773374
262,882.4694472057441
263,882.4645601198225
264,882.4602874575075
265,882.456524915493
266,882.4531668453602
267,882.450106449584
268,882.447235976944
269,882.4444469168864
270,882.441630192398
271,882.4386763509705
272,882.4354757532632
273,882.4319187590878
274,882.427895910363
275,882.4232981107053
276,882.4180168013397
277,882.4119441330157
278,882.4049731336264
279,882.3969978712219
280,882.3879136121157
281,882.377616973797
282,882.3660060723874
283,882.3529806644174
284,882.3384422827384
285,882.3222943664244
286,882.3044423845341
287,882.2847939536242
288,882.2632589489339
289,882.2397496091852
290,882.2141806349692
291,882.1864692807134
292,882.156535440255
293,882.1243017260788
294,882.0896935423003
295,882.0526391515032
296,882.013069735558
297,881.9709194505639
298,881.9261254760501
299,881.8786280585683
300,881.8283705498047
301,881.7752994393554
302,881.719364382326
303,881.6605182219253
304,881.5987170072175
305,881.5339200061953
306,881.4660897143413
307,881.3951918588563
308,881.3211953987409
309,881.2440725209162
310,881.1637986325712
311,881.0803523499252
312,880.9937154835962
313,880.9038730207751
314,880.8108131043992
315,880.7145270095267
316,880.6150091171145
317,880.5122568854129
318,880.4062708191948
319,880.2970544370384
320,880.1846142368826
321,880.0689596600741
322,879.9501030541066
323,879.8280596342416
324,879.70284744417
325,879.5744873158491
326,879.4430028286314
327,879.3084202677891
328,879.1707685825422
329,879.0300793437088
330,878.8863867010972
331,878.739727340763
332,878.5901404422475
333,878.4376676358892
334,878.2823529602882
335,878.1242428199923
336,877.9633859434662
337,877.7998333414039
338,877.6336382654266
339,877.4648561671993
340,877.2935446579901
341,877.1197634686923
342,876.9435744103233
343,876.765041335017
344,876.5842300975183
345,876.4012085171834
346,876.2160463404786
347,876.028815203969
348,875.8395885977819
349,875.6484418295425
350,875.4554519887739
351,875.2606979117555
352,875.0642601468269
353,874.866220920116
354,874.666664101647
355,874.4656751717454
356,874.2633411876161
357,874.0597507499267
358,873.8549939691987
359,873.6491624317832
360,873.4423491651846
361,873.2346486024865
362,873.0261565456351
363,872.8169701273472
364,872.607187771423
365,872.3969091512587
366,872.1862351463778
367,871.975267796812
368,871.7641102551747
369,871.5528667362797
370,871.3416424641532
371,871.1305436163044
372,870.9196772651401
373,870.7091513164341
374,870.4990744447708
375,870.289556025881
376,870.0807060657891
377,869.8726351267061
378,869.6654542496349
379,869.4592748736954
380,869.2542087522085
381,869.0503678656013
382,868.8478643312075
383,868.6468103100336
384,868.4473179105686
385,868.2494990897173
386,868.0534655509574
387,867.8593286398316
388,867.6671992369143
389,867.4771876484058
390,867.2894034945343
391,867.1039555959665
392,866.9209518584337
393,866.740499155785
394,866.5627032116772
395,866.3876684801221
396,866.2154980251166
397,866.0462933995877
398,865.8801545238816
399,865.7171795640161
400,865.5574648099099
401,865.4011045537906
402,865.2481909689704
403,865.0988139891805
404,864.9530611886534
405,864.8110176631615
406,864.6727659122361
407,864.5383857228123
408,864.4079540545692
409,864.2815449272547
410,864.1592293103062
411,864.0410750150942
412,863.9271465901112
413,863.8175052194324
414,863.7122086247638
415,863.6113109713989
416,863.514862778401
417,863.4229108333193
418,863.3354981117384
419,863.2526637019494
420,863.1744427350139
421,863.1008663204808
422,863.0319614879837
423,862.9677511349288
424,862.9082539804538
425,862.8534845258338
426,862.8034530215064
427,862.7581654408891
428,862.7176234611542
429,862.681824451101
430,862.6507614662388
431,862.6244232511599
432,862.6027942492569
433,862.5858546198025
434,862.5735802623625
435,862.565942848465
436,862.5629098603902
437,862.5644446368995
438,862.5705064256916
439,862.5810504423639
440,862.5960279356625
441,862.6153862588125
442,862.6390689467172
443,862.6670157988127
444,862.6991629673568
445,862.7354430509241
446,862.7757851928645
447,862.820115184465
448,862.8683555725388
449,862.9204257711535
450,862.976242177191
451,863.0357182894279
452,863.0987648308198
453,863.1652898736763
454,863.235198967427
455,863.3083952686816
456,863.3847796732801
457,863.4642509500164
458,863.5467058757115
459,863.6320393713041
460,863.7201446386249
461,863.8109132975185
462,863.9042355229795
463,864.0000001819736
464,864.0980949696217
465,864.1984065444299
466,864.3008206622376
467,864.4052223085545
468,864.5114958289547
469,864.6195250572134
470,864.7291934409001
471,864.8403841641768
472,864.9529802675863
473,865.0668647646514
474,865.1819207551342
475,865.2980315348274
476,865.4150807017751
477,865.5329522588326
478,865.6515307124943
479,865.7707011679438
480,865.8903494202918
481,866.0103620419935
482,866.1306264664755
483,866.2510310680301
484,866.3714652380523
485,866.4918194576936
486,866.6119853669959
487,866.7318558305599
488,866.8513249997955
489,866.9702883718123
490,867.0886428450154
491,867.2062867714855
492,867.3231200062469
493,867.4390439535359
494,867.5539616101895
495,867.6677776062763
496,867.7803982430751
497,867.8917315284899
498,868.0016872099865
499,868.1101768051349
500,868.2171136298543
501,868.3224128244568
502,868.4259913775793
503,868.5277681480861
504,868.6276638850096
505,868.7256012455907
506,868.8215048114905
507,868.9153011032548
508,869.0069185931259
509,869.0962877162896
510,869.1833408806366
511,869.2680124751033
512,869.3502388766426
513,869.4299584558672
514,869.5071115814045
515,869.58164062301
516,869.653489953496
517,869.7226059495379
518,869.7889369914279
519,869.8524334618378
520,869.9130477436552
521,869.9707342169644
522,870.0254492552566
523,870.0771512209737
524,870.1258004605019
525,870.171359298746
526,870.2137920334181
527,870.2530649291693
528,870.2891462116831
529,870.3220060618386
530,870.3516166100499
531,870.3779519309065
532,870.4009880382423
533,870.4207028807709
534,870.4370763384237
535,870.4500902195258
536,870.459728258942
537,870.4659761173183
538,870.4688213815351
539,870.4682535664703
540,870.464264118141
541,870.4568464182586
542,870.4459957901902
543,870.4317095062912
544,870.4139867965442
545,870.3928288584349
546,870.3682388680018
547,870.3402219920127
548,870.3087854012434
549,870.2739382848415
550,870.2356918657503
551,870.194059417139
552,870.1490562797601
553,870.1006998801292
554,870.0490097494067
555,869.9940075428566
556,869.9357170597647
557,869.8741642637066
558,869.8093773030633
559,869.7413865316679
560,869.6702245294492
561,869.5959261229261
562,869.5185284053963
563,869.4380707566593
564,869.3545948621097
565,869.2681447310392
566,869.1787667139832
567,869.0865095189545
568,868.9914242263868
569,868.893564302605
570,868.7929856116275
571,868.689746425102
572,868.5839074301846
573,868.4755317351696
574,868.364684872696
575,868.2514348003716
576,868.135851898671
577,868.0180089659636
578,867.8979812105249
579,867.7758462393831
580,867.6516840438632
581,867.525576981693
582,867.3976097555468
583,867.2678693879019
584,867.1364451920884
585,867.0034287394133
586,866.8689138222312
587,866.7329964128293
588,866.5957746179832
589,866.4573486290495
590,866.3178206674602
591,866.177294925495
592,866.0358775022107
593,865.8936763344161
594,865.7508011225963
595,865.6073632517184
596,865.4634757068629
597,865.3192529836643
598,865.1748109935712
599,865.0302669639692
600,864.885739333249
601,864.741347640942
602,864.5972124130925
603,864.4534550430761
604,864.3101976680994
605,864.1675630416443
606,864.0256744021489
607,863.8846553382438
608,863.7446296508998
609,863.6057212128593
610,863.4680538257409
611,863.3317510752349
612,863.19693618483
613,863.0637318685249
614,862.932260182979
615,862.8026423795246
616,862.6749987564391
617,862.5494485118346
618,862.4261095974992
619,862.3050985740027
620,862.1865304673829
621,862.0705186277303
622,861.9571745899914
623,861.8466079373094
624,861.7389261672002
625,861.634234560844
626,861.5326360557588
627,861.4342311220996
628,861.3391176428053
629,861.2473907977896
630,861.1591429523595
631,861.0744635500228
632,860.9934390098379
633,860.916152628451
634,860.8426844869531
635,860.7731113626681
636,860.7075066459694
637,860.6459402621995
638,860.5884785987596
639,860.5351844374245
640,860.486116891938
641,860.4413313509427
642,860.4008794262926
643,860.3648089067826
644,860.3331637173235
645,860.3059838835741
646,860.2833055020335
647,860.2651607155663
648,860.2515776942977
649,860.2425806217799
650,860.2381896863127
651,860.2384210772899
652,860.2432869864473
653,860.2527956138942
654,860.2669511788314
655,860.2857539348717
656,860.3092001898982
657,860.3372823303911
658,860.3699888501425
659,860.4073043832526
660,860.4492097412679
661,860.4956819543012
662,860.5466943159703
663,860.6022164319834
664,860.6622142722172
665,860.726650226126
666,860.795483161335
667,860.8686684852704
668,860.9461582096965
669,861.027901018035
670,861.113842335357
671,861.2039244009433
672,861.2980863433213
673,861.3962642577015
674,861.4983912857225
675,861.6043976973979
676,861.7142109751527
677,861.8277558998351
678,861.9449546386095
679,862.0657268346628
680,862.1899896986777
681,862.317658102041
682,862.4486446717697
683,862.5828598871483
684,862.720212178087
685,862.8606080252038
686,863.003952061634
687,863.1501471765454
688,863.2990946203342
689,863.450694111465
690,863.6048439449249
691,863.7614411022578
692,863.9203813631452
693,864.0815594185049
694,864.244868985078
695,864.41020292149
696,864.5774533457799
697,864.7465117543903
698,864.9172691425931
699,865.0896161263046
700,865.2634430652157
701,865.4386401871353
702,865.6150977134225
703,865.7927059853779
704,865.9713555914617
705,866.1509374952154
706,866.3313431637649
707,866.5124646967738
708,866.6941949557057
709,866.8764276932271
710,867.0590576825524
711,867.2419808464984
712,867.4250943859838
713,867.6082969076901
714,867.7914885505852
715,867.9745711110024
716,868.1574481659617
717,868.3400251944146
718,868.5222096961174
719,868.703911307847
720,868.8850419166905
721,869.0655157701402
722,869.2452495827179
723,869.4241626388505
724,869.6021768917147
725,869.7792170577602
726,869.95521070661
727,870.1300883460405
728,870.3037835017589
729,870.4762327917322
730,870.6473759948449
731,870.8171561136959
732,870.985519431366
733,871.1524155620133
734,871.3177974951826
735,871.4816216337432
736,871.6438478253865
737,871.8044393876355
738,871.9633631263335
739,872.1205893475986
740,872.2760918632532
741,872.4298479897665
742,872.5818385407757
743,872.7320478132717
744,872.8804635675355
745,873.0270770009112
746,873.1718827154943
747,873.3148786798162
748,873.4560661846215
749,873.5954497928717
750,873.7330372841357
751,873.8688395935789
752,874.0028707457896
753,874.1351477836982
754,874.2656906928584
755,874.394522321365
756,874.5216682956927
757,874.6471569327377
758,874.7710191483436
759,874.8932883625783
760,875.0140004020199
761,875.1331933992833
762,875.2509076899977
763,875.3671857074195
764,875.4820718748454
765,875.595612495974
766,875.7078556433536
767,875.8188510450326
768,875.9286499695149
769,876.0373051091033
770,876.1448704616988
771,876.2514012111039
772,876.3569536058611
773,876.4615848366435
774,876.5653529121919
775,876.668316533777
776,876.7705349681673
777,876.8720679190972
778,876.9729753972772
779,877.073317589041
780,877.1731547237559
781,877.2725469401518
782,877.37155415173
783,877.4702359114195
784,877.5686512756515
785,877.6668586680239
786,877.7649157427279
787,877.8628792479112
788,877.9608048891564
789,878.0587471932464
790,878.1567593723925
791,878.2548931891014
792,878.3531988218672
793,878.4517247318894
794,878.5505175310403
795,878.649621851325
796,878.7490802160876
797,878.8489329132256
798,878.9492178706723
799,879.0499705344192
800,879.1512237493716
801,879.2530076433466
802,879.3553495145478
803,879.4582737228543
804,879.5618015852568
805,879.665951275757
806,879.7707377300202
807,879.8761725550439
808,879.9822639440906
809,880.0890165971128
810,880.1964316468897
811,880.3045065910783
812,880.413235230385
813,880.5226076130496
814,880.6326099858288
815,880.7432247516545
816,880.8544304341228
817,880.9662016489634
818,881.0785090826257
819,881.1913194781341
820,881.3045956283593
821,881.4182963768626
822,881.5323766264636
823,881.6467873556575
824,881.7614756429713
825,881.8763846993294
826,881.9914539084804
827,882.1066188755457
828,882.2218114837527
829,882.3369599594045
830,882.451988945112
831,882.5668195812876
832,882.6813695958663
833,882.7955534022122
834,882.9092822051499
835,883.0224641150415
836,883.1350042698093
837,883.246804964782
838,883.3577657902326
839,883.4677837764677
840,883.5767535463247
841,883.6845674749218
842,883.7911158565026
843,883.8962870782017
844,883.9999678005415
845,884.1020431444384
846,884.2023968844552
847,884.3009116479917
848,884.3974691200505
849,884.4919502531783
850,884.5842354821473
851,884.6742049429121
852,884.7617386953509
853,884.8467169492723
854,884.9290202931537
855,885.0085299250532
856,885.0851278851176
857,885.1586972890956
858,885.2291225622483
859,885.2962896730521
860,885.3600863660826
861,885.4204023934826
862,885.4771297444178
863,885.5301628719283
864,885.5793989165921
865,885.6247379264184
866,885.6660830723988
867,885.7033408591504
868,885.7364213300983
869,885.765238266669
870,885.7897093809995
871,885.8097565017016
872,885.8253057522489
873,885.8362877215797
874,885.8426376265206
875,885.8442954656442
876,885.841206164175
877,885.8333197095635
878,885.8205912773601
879,885.8029813470317
880,885.7804558074025
881,885.752986051428
882,885.7205490600581
883,885.6831274749857
884,885.6407096601223
885,885.59328975168
886,885.5408676967738
887,885.4834492804889
888,885.4210461413826
889,885.353675775439
890,885.2813615285438
891,885.2041325776115
892,885.1220239005653
893,885.03507623542
894,884.943336028761
895,884.846855373928
896,884.7456919392239
897,884.6399088864769
898,884.5295747802871
899,884.414763488305
900,884.2955540728902
901,884.1720306745066
902,884.0442823871979
903,883.9124031264729
904,883.7764914899188
905,883.6366506108707
906,883.4929880054808
907,883.3456154135557
908,883.1946486335446
909,883.040207352066
910,882.8824149683634
911,882.721398414078
912,882.5572879687267
913,882.3902170712785
914,882.2203221282203
915,882.0477423185034
916,881.8726193957475
917,881.6950974880556
918,881.5153228957682
