acceleration,velocity,displacement
-0.04271419996957769,0.0,0.0
-0.042431605181447285,-2.1286451287756245e-05,-5.321612821939061e-09
-0.04214857610079959,-4.243149660831796e-05,-2.1251099795957613e-08
-0.04186467877874953,-6.343481032820524e-05,-4.771767653008841e-08
-0.0415794799497347,-8.42958500103263e-05,-8.46503416147213e-08
-0.04129254736448471,-0.00010501385683888116,-1.3197776832702317e-07
-0.041003450112616434,-0.00012558785620815643,-1.8962819658878256e-07
-0.04071175893155307,-0.00014601665846919882,-2.5752932525812137e-07
-0.04041704649872461,-0.00016629885982676824,-3.356082048321131e-07
-0.040118887704345324,-0.00018643284337753572,-4.237911306331891e-07
-0.03981685990261502,-0.0002064167802792758,-5.22003536547392e-07
-0.03951054313968023,-0.0002262486310398496,-6.301698893771733e-07
-0.03919952035719916,-0.00024592614691406944,-7.482135838656531e-07
-0.038883377570812075,-0.00026544687139607224,-8.760568384431885e-07
-0.03856170402316862,-0.0002848081417945674,-1.0136205917408484e-06
-0.038234092311402686,-0.00030400709087821025,-1.1608243999090428e-06
-0.03790013848898098,-0.00032304064857830616,-1.317586334773172e-06
-0.03755944214194964,-0.0003419055437360388,-1.4838228828517582e-06
-0.03721160643971983,-0.0003605983058814562,-1.659448845256132e-06
-0.03685623816070419,-0.0003791152670315622,-1.8443772384843865e-06
-0.036492947693398024,-0.00039745256349508774,-2.038519196116049e-06
-0.03612134901379681,-0.00041560613767188643,-2.2417838714077925e-06
-0.03574105964040564,-0.00043357173983543705,-2.4540783407846233e-06
-0.035351700568496555,-0.0004513449298876626,-2.675307508215398e-06
-0.03495289618572523,-0.00046892107907621803,-2.9053740104563683e-06
-0.03454427417156576,-0.00048629537166554077,-3.144178123141808e-06
-0.03412546538340004,-0.0005034628065542822,-3.391617667696764e-06
-0.033696103732360205,-0.0005204181988332223,-3.64758791904364e-06
-0.03325582605231259,-0.0005371561812793905,-3.911981514071793e-06
-0.03280427196556645,-0.0005536712057838603,-4.184688360837606e-06
-0.03234108374896045,-0.000569957544712492,-4.465595548461694e-06
-0.03186590620395579,-0.000586009292200721,-4.754587257689997e-06
-0.03137838653429628,-0.0006018203653852841,-5.051544672086498e-06
-0.030878174234644177,-0.0006173845055775192,-5.3563458898271994e-06
-0.030364920993492497,-0.0006326952793845534,-5.668865836067718e-06
-0.029838280613476573,-0.0006477460797862957,-5.98897617586043e-06
-0.029297908952085307,-0.0006625301271776862,-6.316545227601425e-06
-0.028743463885528505,-0.0006770404703870896,-6.651437876992619e-06
-0.02817460529829917,-0.0006912699876830465,-6.993515491510153e-06
-0.027590995100779996,-0.0007052113877828162,-7.342635835376619e-06
-0.026992297277047567,-0.0007188572108772732,-7.698652985041642e-06
-0.026378177964859726,-0.0007321998296877499,-8.061417245182897e-06
-0.025748305569606934,-0.0007452314505713666,-8.430775065247677e-06
-0.02510235091368269,-0.000757944114692189,-8.806568956563566e-06
-0.024439987422515734,-0.0007703296992762386,-9.188637410055673e-06
-0.02376089134831469,-0.0007823799189689462,-9.576814814616969e-06
-0.023064742032493098,-0.0007940863273141482,-9.970931376187743e-06
-0.022351222207690657,-0.0008054403183741941,-1.037081303760983e-05
-0.02162001834013856,-0.0008164331285111515,-1.0776281399331166e-05
-0.020870821012882883,-0.0008270558383494069,-1.1187153641046305e-05
-0.020103325350125368,-0.0008372993749401589,-1.1603242444368696e-05
-0.019317231482742808,-0.0008471545141483759,-1.202435591664083e-05
-0.01851224505481192,-0.0008566118832827646,-1.2450297515998616e-05
-0.01768807777077982,-0.0008656619639891626,-1.2880865977816598e-05
-0.01684444798263137,-0.0008742950954275154,-1.3315855242670768e-05
-0.015981081316190995,-0.000882501477752221,-1.3755054385965701e-05
-0.015097711335633016,-0.0008902711759151769,-1.419824754938255e-05
-0.014194080245283363,-0.0008975941238104061,-1.4645213874313946e-05
-0.013269939627630288,-0.0009044601287786345,-1.5095727437461207e-05
-0.012325051216294954,-0.0009108588764896159,-1.554955718877827e-05
-0.011359187702385984,-0.0009167799362192861,-1.6006466891955496e-05
-0.010372133572364326,-0.0009222127665379737,-1.646621506764481e-05
-0.009363685975463467,-0.0009271467214249306,-1.6928554939635536e-05
-0.008333655618810444,-0.0009315710568234991,-1.7393234384197642e-05
-0.0072818676884592905,-0.0009354749376503165,-1.7859995882816096e-05
-0.0062081627945574334,-0.0009388474452710707,-1.8328576478546443e-05
-0.005112397938607354,-0.0009416775854543619,-1.87987077362278e-05
-0.003994447500433505,-0.0009439542968141221,-1.927011570679492e-05
-0.0028542042420955905,-0.0009456664597497544,-1.974252089593589e-05
-0.0016915803257298281,-0.0009468029058917108,-2.0215638237346256e-05
-0.0005065083420238356,-0.0009473524280586492,-2.0689177070833847e-05
0.0007010576542885265,-0.000947303790730583,-2.1162841125531156e-05
0.0019311411059215753,-0.0009466457410405306,-2.1636328508473934e-05
0.003183741915930112,-0.0009453670202850676,-2.2109331698805332e-05
0.004458835416779655,-0.0009434563759518901,-2.258153754786457e-05
0.005756371350617571,-0.0009409025742600409,-2.3052627285417554e-05
0.007076272865970348,-0.0009376944132058939,-2.3522276532284036e-05
0.008418435536153264,-0.000933820736105363,-2.399015531961185e-05
0.009782726404541373,-0.0009292704456201893,-2.4455928115043236e-05
0.011168983061759131,-0.0009240325182536143,-2.4919253856011688e-05
0.01257701275976712,-0.0009180960192982327,-2.537978599039965e-05
0.014006591567762003,-0.0009114501182163504,-2.5837172524778294e-05
0.015457463574601088,-0.0009040841044307596,-2.6291056080440072e-05
0.016929340142147357,-0.0008959874035015725,-2.6741073957423156e-05
0.018421899213522608,-0.000887149593662655,-2.7186858206714214e-05
0.019934784679953563,-0.0008775604226892859,-2.76280357108022e-05
0.021467605809645258,-0.0008672098250668862,-2.8064228272741243e-05
0.023019936741962073,-0.0008560879394289843,-2.849505271386521e-05
0.024591316049971713,-0.0008441851262310008,-2.8920120980280204e-05
0.026181246374224178,-0.0008314919856249518,-2.9339040258244192e-05
0.027789194130411442,-0.0008179993754987929,-2.9751413098525128e-05
0.029414589293361427,-0.0008036984296428497,-3.015683754981054e-05
0.031056825259632943,-0.0007885805760046011,-3.05549073012224e-05
0.03271525879084719,-0.000772637554991981,-3.094521183397154e-05
0.03438921003970705,-0.0007558614377843424,-3.132733658216562e-05
0.03607796266044413,-0.0007382446446093046,-3.1700863102764035e-05
0.037780764005099235,-0.0007197799629429188,-3.206536925465209e-05
0.0394968254065595,-0.0007004605655900041,-3.242042938678532e-05
0.041225322548826854,-0.0006802800286011575,-3.276561453533311e-05
0.042965395924544306,-0.0006592323489828147,-3.31004926297291e-05
0.04471615137952458,-0.0006373119621567975,-3.3424628707514005e-05
0.04647666074386759,-0.0006145137591259494,-3.373758513783469e-05
0.04824596254916434,-0.0005908331033026914,-3.403892185344185e-05
0.05002306283119208,-0.0005662658469576023,-3.432819659100692e-05
0.05180693601730936,-0.0005408083472454769,-3.460496513955769e-05
0.05359652589747763,-0.0005144574817667802,-3.4868781596810757e-05
0.05539074667764376,-0.00048721066362299983,-3.51191986331582e-05
0.05718848411393782,-0.00045906585592510443,-3.535576776304523e-05
0.05898859672594013,-0.0004300215857151349,-3.5578039623455284e-05
0.060789917087076116,-0.00040007695726188084,-3.5785564259199536e-05
0.06259125318994516,-0.0003692316646926255,-3.597789141468816e-05
0.06439138988424417,-0.0003374860039240782,-3.615457083184234e-05
0.06618909038482465,-0.000304840883856811,-3.631515255378756e-05
0.06798309784724386,-0.0002712978367987939,-3.6459187233951465e-05
0.0697721370080705,-0.00023685902808496528,-3.658622645017241e-05
0.0715549158871373,-0.00020152726486116334,-3.669582302340894e-05
0.07333012754889186,-0.00016530600400215605,-3.678753134062477e-05
0.07509645192001621,-0.00012819935913492903,-3.686090768140904e-05
0.07685255766035978,-9.021210673983503e-05,-3.691551054787773e-05
0.07859710408399388,-5.1349691303746614e-05,-3.6950900997388626e-05
0.08032874312694847,-1.1618229501011026e-05,-3.6966642977589816e-05
0.08204612135798843,2.89754866202232e-05,-3.6962303663310015e-05
0.08374788202866675,7.0423987466887e-05,-3.693745379478824e-05
0.08543266715886544,0.00011271912476377004,-3.689166801673058e-05
0.08709911965402622,0.00015585207146699297,-3.6824525217672886e-05
0.0887458854502905,0.00019981332274307214,-3.673560886912037e-05
0.09037161568371768,0.00024459269802657417,-3.662450736392796e-05
0.09197496887966282,0.0002901793441674193,-3.649081435337946e-05
0.09355461315832217,0.0003365617396769155,-3.6334129082418374e-05
0.09510922845235857,0.0003837277000795857,-3.6154056722479246e-05
0.09663750873242831,0.00043166438437578246,-3.595020870136541e-05
0.09813816423630496,0.0004803583026179658,-3.572220302961697e-05
0.0996099236970902,0.0005297953246013146,-3.546966462281215e-05
0.10105153656567374,0.0005799606896670056,-3.519222561924507e-05
0.10246177522229037,0.0006308390176139966,-3.488952569242482e-05
0.10383943717180828,0.0006824143207125213,-3.4561212357843194e-05
0.10518334721730768,0.0007346700168098003,-3.420694127346261e-05
0.10649235960651701,0.0007875889435157565,-3.382637653338123e-05
0.1077653601457084,0.0008411533734538129,-3.341919095413883e-05
0.10900126827568753,0.0008953450305591618,-3.298506635313559e-05
0.11019903910457476,0.0009501451074042274,-3.252369381864474e-05
0.11135766539234844,0.0010055342835284583,-3.203477397091157e-05
0.11247617948235367,0.0010614927447471338,-3.1518017213842675e-05
0.11355365517523949,0.001118000203411532,-3.097314397680301e-05
0.11458920954094512,0.0011750359195905782,-3.0399884946052484e-05
0.11558200466439406,0.0012325787231419131,-2.979798128536936e-05
0.11653124932065517,0.0012906070366381754,-2.9167184845424337e-05
0.11743620057554666,0.0013490988991122258,-2.8507258361486735e-05
0.11829616530801144,0.0014080319905831154,-2.78179756390629e-05
0.119110501650932,0.0014673836573228514,-2.709912172708641e-05
0.11987862034738112,0.0015271309378224298,-2.635049307830009e-05
0.12059998601949272,0.0015872505894141483,-2.5571897696490947e-05
0.12127411834720267,0.001647719115505822,-2.4763155270260953e-05
0.12190059315407253,0.0017085127933811409,-2.3924097293039212e-05
0.12247904339737162,0.0017696077025190018,-2.3054567169064176e-05
0.12300916005967084,0.0018309797533832624,-2.215442030508861e-05
0.123490692939332,0.0018926047166330131,-2.122352418758454e-05
0.12392345133750647,0.001954458252702223,-2.026175844525073e-05
0.12430730463938407,0.0020165159416964456,-1.9269014896651063e-05
0.12464218278759603,0.002078753313553191,-1.8245197582838653e-05
0.1249280766458807,0.00214114587841156,-1.7190222784847465e-05
0.12516503825131498,0.002203669157135859,-1.610401902596061e-05
0.12535318095363374,0.0022662987119370964,-1.4986527058692372e-05
0.12549267944039058,0.0023290101770356026,-1.3837699836449196e-05
0.12558376964699555,0.0023917792893074492,-1.2657502469863434e-05
0.1256267485509626,0.002454581918856939,-1.1445912167822337e-05
0.12562197385004942,0.0025173940994571917,-1.0202918163243804e-05
0.12556986352431812,0.0025801920588007835,-8.92852162367931e-06
0.12547089528238486,0.002642952248502459,-7.6227355468535e-06
0.12532560589248823,0.0027056513737961775,-6.285584641278841e-06
0.12513459039928687,0.0027682664228691214,-4.9171051921125166e-06
0.12489850122774143,0.0028307746957758786,-3.5173449124512666e-06
0.12461804717573376,0.0028931538328767475,-2.08636278028811e-06
0.1242939922974603,0.002955381842745046,-6.242288613826616e-07
0.12392715467986484,0.003017437129489377,8.689758816759441e-07
0.1235184051145769,0.0030792985194379877,2.393159793907785e-06
0.12306866566798881,0.003140945287133629,3.948220745550689e-06
0.12257890815222403,0.0032023571805886823,5.534046362481267e-06
0.12205015250003909,0.003263514445751748,7.150514269066375e-06
0.12148346504700339,0.0033243978501385084,8.797492343038938e-06
0.12087995672478517,0.0033849887055814555,1.0474838981968929e-05
0.12024078116983047,0.0034452688900551095,1.218240338087807e-05
0.11956713275206349,0.003505220868535583,1.3920025820525743e-05
0.11886024452850556,0.0035648277128557254,1.568753796587357e-05
0.11812138612670094,0.003624073120519527,1.7484763174217382e-05
0.11735186156268207,0.0036829414324418726,1.9311516812457733e-05
0.1165530069979903,0.003741417649582041,2.116760658296371e-05
0.11572618844006856,0.0037994874484415554,2.305283285746961e-05
0.11487279939026075,0.003857137195399138,2.4966989018429783e-05
0.11399425844369407,0.003914353959857626,2.6909861807243976e-05
0.11309200684537386,0.003971125526179893,2.8881231678753354e-05
0.11216750600684146,0.004027440404392946,3.088087316139656e-05
0.11122223498781851,0.004083287839641611,3.29085552224052e-05
0.1102576879473396,0.004138657820375401,3.4964041637409455e-05
0.10927537156895459,0.004193541085254475,3.704709136381692e-05
0.10827680246461405,0.004247929128762867,3.9157458917321257e-05
0.10726350456185654,0.004301814205519484,4.129489475089184e-05
0.10623700647884335,0.00435518933327966,4.3459145635591625e-05
0.10519883889182143,0.004408048294622326,4.564995504256712e-05
0.10415053189968738,0.004460385637320203,4.786706352555275e-05
0.10309361239046835,0.004512196673392742,5.0110209103230986e-05
0.10202960141470337,0.004563477476844035,5.2379127640790184e-05
0.1009600115708459,0.0046142248800904225,5.46735532300238e-05
0.09988634440780872,0.004664436469085086,5.6993218567317675e-05
0.09881008784982284,0.004714110577149494,5.933785532887632e-05
0.09773271364875681,0.004763246277524139,6.170719454254472e-05
0.09665567486906185,0.004811843374653593,6.410096695558915e-05
0.09558040341059097,0.004859902394223506,6.651890339780843e-05
0.09450830757466491,0.00490742457196982,6.896073513935675e-05
0.09344076967879561,0.004954411841283185,7.142619424267001e-05
0.09237914372556737,0.005000866819634276,7.391501390789937e-05
0.09132475313096963,0.00504679279384841,7.642692881127005e-05
0.0902788885171953,0.005092193704260451,7.896167543579726e-05
0.08924280557458679,0.005137074127783397,8.151899239380823e-05
0.08821772299700742,0.005181439259926295,8.409862074073565e-05
0.0872048204946576,0.005225294895799212,8.670030427966702e-05
0.08620523688803199,0.005268647410144885,8.932378985615304e-05
0.08522006828635025,0.00531150373643848,9.196882764279888e-05
0.08425036635345062,0.00535387134509843,9.463517141318312e-05
0.08329713666385671,0.005395758220852758,9.732257880467091e-05
0.08236133715147868,0.005437172839306592,0.00010003081156971076
0.08144387665309753,0.005478124142757736,0.00010275963581522684
0.08054561354835553,0.0055186215153081,0.0001055088222297433
0.07966735449756455,0.00555867475731958,0.00010827814629790022
0.07880985327832045,0.005598294059263551,0.000111067388502046
0.07797380972173118,0.005637489975013564,0.00011387633451061528
0.07715986874896215,0.005676273394631237,0.00011670477535302648
0.07636861950878045,0.005714655516695673,0.00011955250758085821
0.07560059461684857,0.00575264782022708,0.0001224193334150889
0.0748562694976514,0.005790262036255705,0.0001253050608792096
0.07413606183008711,0.00582751011908764,0.00012820950391804545
0.07344033109779517,0.00586440421731961,0.00013113248250214726
0.07276937824522259,0.005900956644655364,0.00013407382271764102
0.07212344544023375,0.005937179850576729,0.00013703335684144905
0.07150271594383714,0.005973086390922746,0.00014001092340182393
0.0709073140874822,0.006008688898430576,0.00014300636722416226
0.0703373053582655,0.006044000053292013,0.00014601953946209292
0.0697926965923378,0.006079032553779664,0.00014905029761386085
0.06927343627670526,0.006113799086996925,0.000152098505524055
0.0687794149594082,0.006148312299805953,0.0001551640333707557
0.06831046576771627,0.006182584769987734,0.00015824675763820414
0.06786636503353226,0.006216628977688046,0.00016134656107512309
0.06744683302471105,0.006250457277202607,0.00016446333263884575
0.06705153478054837,0.006284081869153922,0.00016759696742543487
0.06668008104933713,0.006317514773111393,0.0001707473665860012
0.06633202932564548,0.006350767800705139,0.00017391443722945533
0.0660068849847501,0.006383852529282737,0.00017709809231195232
0.06570410251138538,0.0064167802761567715,0.0001802982505133122
0.06542308681972171,0.0064495620734895485,0.00018351483610072378
0.06516319466127966,0.0064822086438597985,0.0001867477787800611
0.06492373611725531,0.006514730376554432,0.00018999701353516465
0.06470397617150349,0.006547137304626622,0.0001932624804554599
0.0645031363601909,0.006579439082759546,0.00019654412455230645
0.06432039649383559,0.006611644965973052,0.0001998418955644896
0.06415489644727673,0.00664376378920833,0.00020315574775328494
0.06400573801286993,0.006675803947823367,0.00020648563968754286
0.06387198681188629,0.006707773379029556,0.0002098315340192561
0.06375267425884285,0.0067396795442972385,0.00021319339725008778
0.06364679957336769,0.006771529412755291,0.0002165711994893509
0.0635533318341288,0.006803329445607165,0.00021996491420394154
0.06347121206929739,0.006835085581583022,0.00022337451796073908
0.06339935537793291,0.006866803223444829,0.00022679999016199604
0.06333665307676382,0.006898487225558503,0.00023024131277424686
0.06328197486690523,0.00693014188254442,0.0002336984700512726
0.06323417101512398,0.0069617709190149275,0.00023717144825166243
0.06319207454430249,0.006993377480404784,0.00024066023535151734
0.06315450342780254,0.00702496412489781,0.00024416482075284297
0.06312026278243492,0.007056532816450369,0.00024768519498818
0.06308814705478176,0.007088084918909673,0.00025122134942202
0.06305694219576986,0.007119621191222311,0.000254773275949553
0.06302542781860412,0.007151141783725904,0.00025834096669329006
0.06299237933534595,0.007182646235514392,0.0002619244136981001
0.0629565700677218,0.007214133472865159,0.000265523608625195
0.06291677332796801,0.007245601808714081,0.0002691385424455898
0.06287176446579185,0.007277048943162521,0.0002727692051335589
0.06282032287769003,0.0073084719649983915,0.00027641558536059915
0.06276123397508121,0.0073398673542115845,0.00028007767019040165
0.06269329110776316,0.007371230985482296,0.00028375544477532514
0.06261529743927587,0.0074025581326190555,0.0002874488920548505
0.06252606777075008,0.0074338434739215625,0.00029115799245648565
0.062424430309850315,0.007465081098441712,0.00029488272359957647
0.062309228381604465,0.007496264513114576,0.00029862306000246554
0.06217932207819055,0.007527386650729525,0.00030237897279342655
0.06203358984516863,0.007558439878710364,0.00030615042942578653
0.061870930002126484,0.007589416008672188,0.00030993739339763216
0.06169026219605241,0.0076203063067217325,0.00031373982397648063
0.06149052878601575,0.00765110150446725,0.0003175576759292779
0.06127069615794654,0.00768179181070324,0.0003213908992580705
0.06102975596859881,0.007712366923734877,0.00032523943894168005
0.06076672631809176,0.007742816044306549,0.0003291032346836904
0.060480652850686815,0.007773127889098744,0.0003329822206670417
0.06017060978373953,0.007803290704757351,0.00033687632531550577
0.05983570086512894,0.007833292282419567,0.0003407854710623
0.059475060259781415,0.007863119972700795,0.0003447095741260801
0.059087853366236495,0.0078927607011073,0.0003486485442945321
0.05867327756444407,0.00792220098383997,0.0003526022847157689
0.05823056289622258,0.007951426943955137,0.00035657069169771767
0.05775897267996309,0.007980424327849183,0.00036055365451566877
0.057257804061108114,0.00800917852203445,0.0003645510552281397
0.056726388499873104,0.008037674570174696,0.00036856276850119195
0.05616409219765799,0.008065897190349077,0.0003725886614413229
0.05557031646376433,0.008093830792514432,0.00037662859343703877
0.05494449802418714,0.00812145949613642,0.0003806824160092015
0.054286109274385784,0.008148767147961063,0.00038474997267022587
0.05359465847791111,0.008175737339899137,0.0003888310987921909
0.05286968991266597,0.00820235342699678,0.0003929256214839149
